Data from WindowProjectSample_Transmission__29__00029__06508717441261793.txt Node

Date: Mon May 05 17:31:50 EDT 2025
User: jessi
Spectrometer: SR400872
Trigger mode: 0
Integration Time (sec): 5.000010E-1
Scans to average: 20
Electric dark correction enabled: true
Nonlinearity correction enabled: true
Boxcar width: 0
XAxis mode: Wavelengths
Number of Pixels in Spectrum: 3648
>>>>>Begin Spectral Data<<<<<
184.909	20945.67718
185.132	-4894.56806
185.355	-3044.57429
185.578	-17596.55735
185.801	2026.17207
186.024	9884.30507
186.247	-1883.62128
186.47	1278.05039
186.693	293.3402
186.916	338.32379
187.139	-3602.55863
187.362	3472.37879
187.585	3944.96792
187.808	3553.16169
188.031	-0.15267
188.254	-55823.66766
188.476	-673.79745
188.699	6240.70559
188.922	469.90914
189.145	-14944.61008
189.368	-722.93687
189.591	-1508.31629
189.813	2993.50898
190.036	-48323.61932
190.259	-845.88144
190.482	-4410.04702
190.705	6896.66694
190.927	-2398.67665
191.15	12721.18748
191.373	3333.38776
191.595	-8541.39464
191.818	-3985.46176
192.041	-6035.72721
192.263	-3322.61373
192.486	-747.53656
192.709	-3819.44769
192.931	7582.17932
193.154	-27658.65035
193.377	-2781.42864
193.599	-2498.27137
193.822	-9237.46912
194.044	-1946.68696
194.267	1125.14445
194.489	260.60858
194.712	-40410.18014
194.934	-31366.21391
195.157	1118.52203
195.379	1497.14076
195.602	-6748.45974
195.824	-1293.60109
196.047	-8383.15508
196.269	2633.35292
196.492	-6294.94038
196.714	27384.91704
196.936	-8177.39818
197.159	-1131.90394
197.381	1117.90655
197.604	487.70651
197.826	11542.81991
198.048	-10363.26608
198.271	-2722.37043
198.493	7314.06105
198.715	2231.55641
198.938	-456.74621
199.16	7158.29433
199.382	-103191.17168
199.604	2694.8017
199.827	-1001.29141
200.049	-2809.23228
200.271	13640.50205
200.493	1203.50724
200.715	-37351.54245
200.938	-6001.08968
201.16	-4260.214
201.382	20750.0765
201.604	2237.61788
201.826	2344.16053
202.048	-1812.97983
202.27	-1924.86976
202.492	-36462.47409
202.715	2812.31071
202.937	-4272.56792
203.159	-6181.17966
203.381	1532.11573
203.603	6861.47539
203.825	5857.69654
204.047	2187.29726
204.269	-2653.84072
204.491	2121.80438
204.713	6099.47408
204.935	-453615.33553
205.156	1160.99969
205.378	-2747.32005
205.6	1571.24542
205.822	150582.29609
206.044	-1011.12833
206.266	1495.16337
206.488	4447.82726
206.71	-5257.19783
206.932	1061.79633
207.153	11620.52051
207.375	-6699.81421
207.597	-37754.54204
207.819	-2777.7972
208.041	2378.91544
208.262	473.21814
208.484	715.15352
208.706	-772.76634
208.927	-808.73633
209.149	525.91618
209.371	-2829.13108
209.593	-268.0509
209.814	-842.20796
210.036	627.55532
210.258	-615.55778
210.479	1641.29199
210.701	1647.27667
210.922	3368.31008
211.144	-3898.01852
211.366	1941.02411
211.587	6747.09611
211.809	-8049.02098
212.03	2379.73486
212.252	500.82228
212.473	2029.36304
212.695	-6191.9584
212.916	2785.54733
213.138	-701.81402
213.359	3709.69534
213.581	5046.24337
213.802	-788.2327
214.024	1089.31996
214.245	2095.71278
214.466	2406.08182
214.688	-3121.65047
214.909	-1123.97513
215.131	-1690.51036
215.352	-3046.62235
215.573	14150.21707
215.795	5066.19816
216.016	5155.88325
216.237	794.74122
216.459	3315.18974
216.68	1768.76749
216.901	5073.58842
217.122	-3274.59329
217.344	-11048.10728
217.565	3323.00043
217.786	8505.72376
218.007	16533.69797
218.228	-780.80407
218.45	5617.02817
218.671	730.88922
218.892	34903.27675
219.113	1493.5276
219.334	-229.5304
219.555	9790.47484
219.776	3011.30944
219.997	21692.0314
220.219	2907.03032
220.44	-10833.81193
220.661	509.82519
220.882	1494.95628
221.103	-1140.72606
221.324	2170.81357
221.545	2284.99437
221.766	-8700.48516
221.987	918.83518
222.208	1658.39273
222.429	4150.36645
222.65	144.76718
222.87	17603.70786
223.091	732.25025
223.312	520.55648
223.533	1417.6596
223.754	1487.32611
223.975	1308.51056
224.196	1985.30235
224.417	1364.32941
224.637	585.10547
224.858	125.81308
225.079	1155.58076
225.3	651.21804
225.521	3730.08092
225.741	459.80384
225.962	500.36992
226.183	144.1823
226.404	654.77242
226.624	412.06107
226.845	603.40976
227.066	391.83701
227.286	248.25452
227.507	126.56934
227.728	113.17016
227.948	237.67661
228.169	69.5024
228.389	85.07004
228.61	42.03047
228.831	62.82567
229.051	2.118
229.272	38.9148
229.492	56.6507
229.713	11.91675
229.933	36.07551
230.154	31.8073
230.374	53.07538
230.595	37.54537
230.815	23.08635
231.036	37.72646
231.256	-6.80663
231.477	67.60273
231.697	36.48143
231.917	40.20178
232.138	54.0168
232.358	113.38525
232.579	99.91106
232.799	18.10049
233.019	96.69206
233.24	113.3431
233.46	36.92295
233.68	65.12744
233.901	44.62204
234.121	22.7994
234.341	12.9778
234.561	-4.83462
234.782	20.30351
235.002	66.88852
235.222	-4.1431
235.442	63.81615
235.662	33.23306
235.883	61.4764
236.103	51.89277
236.323	35.49135
236.543	27.48343
236.763	39.71043
236.983	41.79154
237.203	40.96509
237.423	55.94802
237.643	84.00494
237.864	72.78241
238.084	20.00818
238.304	23.57883
238.524	43.11481
238.744	41.09051
238.964	72.60561
239.184	59.58163
239.404	62.17393
239.624	33.66604
239.843	58.59891
240.063	33.87135
240.283	20.75392
240.503	24.4568
240.723	25.29337
240.943	13.13796
241.163	19.52093
241.383	14.46303
241.603	6.72271
241.822	8.99305
242.042	6.46115
242.262	8.09254
242.482	9.05105
242.702	10.16716
242.921	2.94846
243.141	6.45424
243.361	6.172
243.581	9.27108
243.8	7.02108
244.02	5.06406
244.24	9.66796
244.459	9.14644
244.679	17.35612
244.899	10.88236
245.118	12.3702
245.338	11.67991
245.558	12.90648
245.777	7.53581
245.997	10.17027
246.216	10.34776
246.436	6.26071
246.655	4.5886
246.875	3.0239
247.094	5.87816
247.314	1.91285
247.533	3.47161
247.753	4.31882
247.972	3.19875
248.192	0.92004
248.411	1.86021
248.631	3.4791
248.85	4.64146
249.07	3.5658
249.289	5.74812
249.508	4.70687
249.728	7.20183
249.947	7.24807
250.166	8.8868
250.386	4.46168
250.605	5.6458
250.824	11.04808
251.044	7.1687
251.263	28.06838
251.482	14.45246
251.701	11.1633
251.921	0.15
252.14	3.5627
252.359	4.07826
252.578	9.79321
252.798	3.57151
253.017	8.8401
253.236	3.77317
253.455	5.51732
253.674	9.91314
253.893	4.97807
254.112	7.43534
254.331	11.17715
254.551	8.10051
254.77	2.94401
254.989	12.8722
255.208	9.08036
255.427	14.06624
255.646	11.16231
255.865	21.28591
256.084	8.66671
256.303	10.51726
256.522	13.45129
256.741	2.35214
256.96	2.96011
257.179	8.97133
257.397	10.84353
257.616	5.51294
257.835	5.41787
258.054	15.20068
258.273	10.42039
258.492	10.8122
258.711	6.10092
258.93	3.0197
259.148	4.68728
259.367	4.3801
259.586	5.42359
259.805	2.17777
260.023	5.05595
260.242	3.93704
260.461	2.66131
260.68	1.27001
260.898	4.32538
261.117	1.39325
261.336	0.89749
261.554	3.41068
261.773	3.42185
261.992	0.7514
262.21	3.22206
262.429	3.40226
262.648	7.54604
262.866	7.8476
263.085	5.43476
263.303	4.85315
263.522	8.24861
263.74	8.54925
263.959	15.07109
264.178	6.83659
264.396	6.43202
264.615	4.65361
264.833	10.20485
265.051	8.66034
265.27	10.84687
265.488	10.75635
265.707	6.03354
265.925	10.36489
266.144	4.72256
266.362	5.29778
266.58	5.2405
266.799	4.90979
267.017	5.77515
267.235	5.27669
267.454	3.22796
267.672	1.80781
267.89	3.99879
268.109	4.45711
268.327	4.1824
268.545	1.01197
268.763	3.83785
268.982	1.42994
269.2	4.48342
269.418	2.73036
269.636	1.96895
269.854	4.43206
270.073	3.0534
270.291	1.79587
270.509	1.56826
270.727	4.44725
270.945	7.19472
271.163	6.88113
271.381	1.33287
271.599	2.89343
271.817	5.12766
272.036	1.65113
272.254	3.08766
272.472	2.28375
272.69	2.69393
272.908	2.28118
273.126	4.50932
273.344	5.11229
273.562	1.83355
273.779	2.50808
273.997	3.97324
274.215	4.08636
274.433	2.92535
274.651	4.19303
274.869	4.67908
275.087	2.846
275.305	4.0774
275.523	2.4172
275.74	2.85808
275.958	5.30961
276.176	7.98423
276.394	2.52595
276.612	3.08565
276.829	3.01329
277.047	2.6292
277.265	2.91391
277.483	3.34242
277.7	4.29938
277.918	3.53069
278.136	6.18377
278.353	2.92164
278.571	1.7394
278.789	4.02551
279.006	0.86302
279.224	2.60425
279.442	5.22974
279.659	3.40501
279.877	2.35042
280.094	5.41039
280.312	1.07812
280.529	3.34371
280.747	0.99448
280.964	2.46146
281.182	5.9545
281.399	2.7147
281.617	3.65139
281.834	2.50914
282.052	1.93507
282.269	2.97
282.487	2.46304
282.704	1.97898
282.921	2.1995
283.139	3.35961
283.356	3.98734
283.574	3.68467
283.791	1.74489
284.008	5.52245
284.226	2.77516
284.443	3.34632
284.66	4.49144
284.877	3.40102
285.095	2.13905
285.312	1.45395
285.529	0.93345
285.746	0.70813
285.964	2.05572
286.181	1.4956
286.398	1.82289
286.615	2.63237
286.832	2.47886
287.05	0.52931
287.267	1.83244
287.484	1.8497
287.701	2.52685
287.918	2.52274
288.135	2.51984
288.352	1.23949
288.569	1.40009
288.786	2.29094
289.003	1.98343
289.22	2.93624
289.437	1.51034
289.654	2.78609
289.871	3.10956
290.088	2.80971
290.305	2.2537
290.522	1.64229
290.739	2.07266
290.956	3.09351
291.173	3.4451
291.39	3.28313
291.607	2.29335
291.824	1.68493
292.04	1.11227
292.257	2.8722
292.474	3.24738
292.691	1.89101
292.908	1.00856
293.125	1.67335
293.341	1.00439
293.558	4.8575
293.775	2.08445
293.992	1.95371
294.208	0.88255
294.425	1.34077
294.642	1.85486
294.858	2.48762
295.075	0.80149
295.292	1.87922
295.508	2.396
295.725	4.10731
295.942	1.85661
296.158	1.45004
296.375	2.3099
296.591	1.78159
296.808	2.04585
297.024	2.40139
297.241	2.66481
297.458	2.77787
297.674	0.73852
297.891	2.37035
298.107	2.07469
298.323	1.69253
298.54	3.75901
298.756	2.02599
298.973	1.42572
299.189	3.8945
299.406	2.06097
299.622	3.64983
299.838	3.63188
300.055	3.63079
300.271	1.70068
300.487	1.98623
300.704	2.42417
300.92	1.91823
301.136	5.42577
301.353	3.65093
301.569	3.10161
301.785	3.40572
302.001	3.93555
302.218	3.50638
302.434	3.63582
302.65	2.13788
302.866	2.9104
303.083	5.48437
303.299	5.34885
303.515	3.46749
303.731	3.86333
303.947	2.21396
304.163	3.05201
304.379	3.69194
304.595	4.02327
304.812	2.90658
305.028	3.05404
305.244	3.37387
305.46	4.21628
305.676	4.46195
305.892	4.82874
306.108	4.25862
306.324	3.36063
306.54	5.43316
306.756	4.35587
306.972	4.05923
307.187	3.87577
307.403	5.08093
307.619	3.36405
307.835	4.91947
308.051	5.22868
308.267	3.10483
308.483	5.04374
308.699	4.46818
308.914	4.05328
309.13	3.89708
309.346	3.01496
309.562	3.33324
309.778	3.04418
309.993	4.60768
310.209	4.39231
310.425	3.21912
310.641	4.201
310.856	3.49478
311.072	3.44122
311.288	4.15254
311.503	4.61428
311.719	2.85732
311.935	2.99598
312.15	5.00669
312.366	4.51669
312.581	4.78078
312.797	4.35808
313.013	5.20914
313.228	3.76473
313.444	4.11571
313.659	3.80409
313.875	4.867
314.09	4.14952
314.306	5.60313
314.521	5.0866
314.737	5.08437
314.952	4.31943
315.168	4.38966
315.383	4.83775
315.599	4.01445
315.814	4.10101
316.029	5.05657
316.245	3.57971
316.46	2.92676
316.675	5.50771
316.891	6.07641
317.106	7.12383
317.321	4.52885
317.537	5.21021
317.752	5.35315
317.967	5.32428
318.183	3.7356
318.398	4.23299
318.613	5.36142
318.828	5.88424
319.043	5.1372
319.259	4.46843
319.474	4.79818
319.689	5.75626
319.904	3.10711
320.119	5.52391
320.334	4.80158
320.549	4.51291
320.765	5.56927
320.98	5.09858
321.195	5.15438
321.41	4.70247
321.625	5.38531
321.84	6.36082
322.055	6.15405
322.27	4.14088
322.485	3.62186
322.7	5.09935
322.915	5.38847
323.13	4.21685
323.345	6.26761
323.56	5.80087
323.775	5.43034
323.989	5.25541
324.204	5.16929
324.419	5.87864
324.634	4.08193
324.849	4.83425
325.064	8.0366
325.279	5.709
325.493	5.36284
325.708	5.61643
325.923	4.37144
326.138	4.73791
326.352	6.37257
326.567	5.87028
326.782	4.45094
326.997	4.6662
327.211	5.51784
327.426	5.28163
327.641	4.7756
327.855	3.70326
328.07	5.43079
328.285	6.75095
328.499	4.65248
328.714	5.19591
328.928	5.35442
329.143	4.92598
329.358	6.01819
329.572	5.81302
329.787	6.24262
330.001	7.39791
330.216	3.87652
330.43	6.97421
330.645	6.37762
330.859	5.7951
331.074	4.29343
331.288	5.20035
331.503	6.484
331.717	4.2625
331.931	5.20213
332.146	5.52987
332.36	6.90581
332.575	5.50084
332.789	5.32454
333.003	5.47273
333.218	5.66893
333.432	4.72428
333.646	5.94124
333.86	6.85345
334.075	6.59414
334.289	4.73813
334.503	4.12362
334.717	5.57298
334.932	5.62161
335.146	6.20754
335.36	4.68342
335.574	5.96128
335.788	5.67559
336.003	6.02816
336.217	5.9308
336.431	5.78673
336.645	4.84745
336.859	4.35579
337.073	5.1974
337.287	5.58729
337.501	4.35889
337.715	5.81954
337.929	6.01759
338.143	4.40154
338.357	5.06971
338.571	4.93773
338.785	5.93024
338.999	4.95541
339.213	4.99866
339.427	4.32357
339.641	6.62213
339.855	5.09945
340.069	4.7359
340.283	6.17565
340.497	6.94645
340.711	5.82122
340.924	5.48553
341.138	4.55056
341.352	4.31537
341.566	5.61749
341.78	4.2459
341.993	5.06815
342.207	4.81348
342.421	5.74115
342.635	5.32483
342.848	5.11216
343.062	3.65287
343.276	4.89686
343.49	7.06242
343.703	4.86326
343.917	6.55555
344.131	6.40182
344.344	4.81088
344.558	5.36318
344.771	4.45915
344.985	6.82204
345.199	6.92482
345.412	5.78584
345.626	5.96716
345.839	4.34081
346.053	4.61734
346.266	4.84022
346.48	6.11693
346.693	5.87591
346.907	5.70068
347.12	4.68747
347.334	5.76869
347.547	5.78033
347.76	5.35904
347.974	6.35889
348.187	5.68081
348.401	5.11555
348.614	4.69864
348.827	5.29007
349.041	5.81804
349.254	4.10746
349.467	5.11622
349.681	4.73792
349.894	4.69476
350.107	6.4716
350.32	7.08095
350.534	4.43084
350.747	5.21795
350.96	4.80564
351.173	4.968
351.386	5.32789
351.6	5.00508
351.813	5.17194
352.026	5.28646
352.239	4.70382
352.452	5.17756
352.665	6.48903
352.878	5.4032
353.092	7.24117
353.305	6.06292
353.518	5.76008
353.731	4.88372
353.944	6.43667
354.157	5.25953
354.37	5.0954
354.583	4.87575
354.796	4.62123
355.009	6.37451
355.222	5.87989
355.435	5.71667
355.647	6.45245
355.86	5.06879
356.073	5.72508
356.286	5.2723
356.499	6.39448
356.712	6.17247
356.925	6.21792
357.138	6.32393
357.35	5.27603
357.563	5.66207
357.776	6.05273
357.989	5.74798
358.201	6.29965
358.414	6.15751
358.627	6.98529
358.84	5.73283
359.052	4.90834
359.265	5.3284
359.478	6.61779
359.69	4.089
359.903	6.56179
360.116	6.6193
360.328	4.9207
360.541	6.5235
360.753	5.48925
360.966	5.76099
361.179	5.96611
361.391	5.71379
361.604	5.57611
361.816	5.87769
362.029	5.84214
362.241	5.56082
362.454	5.98511
362.666	5.49134
362.879	6.54357
363.091	5.87168
363.304	5.74392
363.516	5.95246
363.728	5.31681
363.941	6.3551
364.153	6.16071
364.366	4.52927
364.578	5.28035
364.79	6.22876
365.003	6.06958
365.215	5.4083
365.427	6.33555
365.639	6.68088
365.852	6.0246
366.064	7.46543
366.276	5.84935
366.488	6.09284
366.701	5.62617
366.913	5.68864
367.125	5.80437
367.337	5.23485
367.549	5.55505
367.762	5.94667
367.974	5.87049
368.186	5.77959
368.398	6.55084
368.61	6.20546
368.822	6.46663
369.034	5.71704
369.246	6.47664
369.458	8.0774
369.67	5.37923
369.882	7.23525
370.094	4.6865
370.306	7.06297
370.518	5.79664
370.73	5.55458
370.942	5.68526
371.154	5.98317
371.366	5.8764
371.578	6.284
371.79	5.87062
372.002	6.89571
372.214	7.70285
372.425	5.97796
372.637	7.16086
372.849	6.31128
373.061	4.86017
373.273	6.34345
373.484	6.29609
373.696	6.74089
373.908	4.65847
374.12	6.84261
374.331	6.41055
374.543	5.43645
374.755	5.48128
374.967	6.12345
375.178	6.72324
375.39	5.82761
375.602	6.21533
375.813	5.07789
376.025	5.5457
376.236	6.29379
376.448	6.51051
376.66	6.00369
376.871	6.02675
377.083	7.04403
377.294	7.53992
377.506	5.97203
377.717	7.39361
377.929	6.51741
378.14	6.04284
378.352	6.56073
378.563	6.77173
378.775	7.34265
378.986	5.595
379.197	6.2949
379.409	5.75768
379.62	6.77734
379.832	6.59655
380.043	6.21764
380.254	6.53038
380.466	5.57188
380.677	8.26033
380.888	7.68726
381.1	8.03349
381.311	8.04529
381.522	6.58391
381.733	8.33744
381.945	6.38405
382.156	6.30737
382.367	6.05171
382.578	8.26941
382.789	8.3887
383.001	5.89531
383.212	7.72463
383.423	7.60237
383.634	7.34389
383.845	7.11655
384.056	6.35815
384.267	6.59547
384.478	6.68025
384.69	5.77584
384.901	6.93729
385.112	6.75482
385.323	7.88664
385.534	6.90143
385.745	6.93832
385.956	6.79673
386.167	6.18246
386.378	7.01973
386.588	6.21388
386.799	6.05945
387.01	5.6481
387.221	7.23274
387.432	6.73503
387.643	7.80039
387.854	6.58027
388.065	6.37095
388.275	6.55315
388.486	6.34424
388.697	6.58708
388.908	6.41026
389.119	7.50949
389.329	7.68493
389.54	6.83356
389.751	6.93337
389.962	7.66063
390.172	6.83867
390.383	6.67718
390.594	6.48359
390.804	6.51945
391.015	6.54131
391.226	7.05095
391.436	7.2544
391.647	7.17359
391.858	7.39039
392.068	6.04633
392.279	6.3231
392.489	7.20105
392.7	7.69714
392.91	6.55606
393.121	6.52472
393.331	7.26012
393.542	7.70292
393.752	7.54197
393.963	7.29983
394.173	7.20007
394.384	7.35067
394.594	7.06357
394.804	6.36543
395.015	7.14886
395.225	7.35239
395.436	6.58442
395.646	7.29732
395.856	6.75401
396.067	6.13805
396.277	7.59976
396.487	7.25189
396.697	7.23084
396.908	7.27706
397.118	7.41393
397.328	7.19269
397.538	7.66945
397.749	6.59453
397.959	7.55291
398.169	7.3785
398.379	6.15871
398.589	7.51767
398.8	7.27079
399.01	7.19599
399.22	6.91986
399.43	8.45364
399.64	7.15613
399.85	7.56791
400.06	7.18971
400.27	6.61313
400.48	7.05455
400.69	7.97469
400.9	6.83932
401.11	6.49835
401.32	7.56271
401.53	6.88668
401.74	8.18275
401.95	7.54591
402.16	6.81873
402.37	7.43001
402.58	6.95833
402.79	7.49323
403	7.93792
403.209	6.84009
403.419	8.0773
403.629	6.81428
403.839	7.94985
404.049	7.78384
404.258	7.23306
404.468	7.04758
404.678	7.73036
404.888	8.1931
405.097	7.29679
405.307	7.43406
405.517	7.89675
405.727	7.77849
405.936	7.40135
406.146	7.78697
406.356	8.28571
406.565	7.44783
406.775	7.26955
406.984	7.35311
407.194	8.6787
407.404	7.46172
407.613	7.81694
407.823	7.97266
408.032	8.28509
408.242	8.17259
408.451	7.26916
408.661	7.54204
408.87	8.63502
409.08	7.25709
409.289	7.85744
409.499	7.83476
409.708	7.74161
409.918	6.47369
410.127	8.00221
410.336	8.71635
410.546	8.27616
410.755	7.54038
410.964	7.67829
411.174	7.22262
411.383	8.01322
411.592	7.94925
411.802	7.24882
412.011	8.25342
412.22	7.68042
412.429	8.98102
412.639	8.73267
412.848	8.37307
413.057	8.70503
413.266	8.61728
413.475	8.05527
413.685	8.2076
413.894	8.59385
414.103	8.69209
414.312	8.59671
414.521	7.79929
414.73	7.96937
414.939	9.37121
415.148	8.56702
415.357	8.25501
415.566	8.0661
415.776	8.05906
415.985	8.17515
416.194	8.93606
416.403	9.54311
416.611	7.69081
416.82	8.30204
417.029	8.60801
417.238	8.36287
417.447	8.14169
417.656	8.53248
417.865	8.38392
418.074	8.55779
418.283	8.71109
418.492	9.26576
418.7	9.2052
418.909	10.12417
419.118	9.324
419.327	9.73429
419.536	9.63614
419.744	9.68742
419.953	10.89636
420.162	11.07896
420.371	10.63587
420.579	11.11693
420.788	11.95444
420.997	12.07716
421.205	12.39448
421.414	12.17379
421.623	12.30585
421.831	11.9938
422.04	12.5106
422.249	11.69156
422.457	11.92181
422.666	11.15697
422.874	11.94537
423.083	12.00571
423.291	12.01151
423.5	12.00981
423.708	12.32065
423.917	12.79859
424.125	12.39566
424.334	12.34903
424.542	13.78341
424.751	13.45043
424.959	13.04063
425.167	13.10721
425.376	12.829
425.584	11.76524
425.793	11.66286
426.001	10.81577
426.209	10.81841
426.418	9.85202
426.626	9.51356
426.834	9.34659
427.042	9.7642
427.251	9.41175
427.459	10.13706
427.667	9.74268
427.875	8.96506
428.084	9.4307
428.292	10.31895
428.5	9.90301
428.708	9.1134
428.916	9.13257
429.124	9.6368
429.333	9.43386
429.541	9.61178
429.749	9.81413
429.957	9.64597
430.165	11.2296
430.373	8.87346
430.581	9.82367
430.789	10.50332
430.997	9.61136
431.205	9.28262
431.413	10.05159
431.621	9.58114
431.829	10.16442
432.037	9.7409
432.245	10.24446
432.453	10.19947
432.661	9.91111
432.869	11.01072
433.076	9.66615
433.284	10.10462
433.492	10.50143
433.7	10.77395
433.908	10.05864
434.116	10.26078
434.323	10.30367
434.531	10.18234
434.739	10.52128
434.947	10.70328
435.154	10.57025
435.362	10.2544
435.57	10.16037
435.778	9.86652
435.985	10.41887
436.193	10.02618
436.401	10.9475
436.608	10.23363
436.816	10.04608
437.023	11.00892
437.231	11.19747
437.439	10.44925
437.646	10.65095
437.854	10.51226
438.061	10.81404
438.269	10.40458
438.476	10.7334
438.684	10.52557
438.891	10.43285
439.099	10.1607
439.306	10.01369
439.514	10.10746
439.721	11.14177
439.929	10.8685
440.136	11.80674
440.343	11.8791
440.551	11.85471
440.758	13.29004
440.965	12.15447
441.173	11.8501
441.38	11.73389
441.587	11.47182
441.795	11.27843
442.002	10.96669
442.209	10.88945
442.416	11.01598
442.624	11.05763
442.831	10.89831
443.038	10.51652
443.245	10.26389
443.452	10.58487
443.66	10.98678
443.867	10.48068
444.074	10.49464
444.281	10.40177
444.488	10.65789
444.695	10.76914
444.902	10.66815
445.109	11.72713
445.316	11.6979
445.523	12.0646
445.73	12.35704
445.937	13.35851
446.144	13.8554
446.351	14.26223
446.558	13.39804
446.765	15.05176
446.972	14.512
447.179	14.13021
447.386	14.52057
447.593	13.05756
447.8	13.86394
448.007	12.52184
448.214	11.8423
448.42	11.33627
448.627	11.60172
448.834	10.98611
449.041	10.96246
449.248	10.94599
449.454	11.35715
449.661	11.93183
449.868	10.77773
450.075	10.76118
450.281	10.09282
450.488	10.5129
450.695	10.60074
450.901	10.71601
451.108	10.65844
451.315	11.55242
451.521	10.81718
451.728	11.58687
451.935	10.64227
452.141	11.08258
452.348	11.04876
452.554	11.1595
452.761	10.91374
452.967	11.96635
453.174	11.22622
453.38	11.35834
453.587	10.55089
453.793	11.31977
454	11.66519
454.206	12.34644
454.413	11.6737
454.619	11.48098
454.825	10.82922
455.032	11.5253
455.238	11.58303
455.445	10.79017
455.651	11.27537
455.857	10.41524
456.064	11.13857
456.27	11.12036
456.476	11.03417
456.682	10.60528
456.889	11.41375
457.095	11.45209
457.301	12.5317
457.507	11.33854
457.714	11.3113
457.92	11.33546
458.126	10.92602
458.332	11.32667
458.538	11.19127
458.744	11.25592
458.951	11.31296
459.157	13.436
459.363	12.9255
459.569	13.37784
459.775	14.10639
459.981	13.90059
460.187	14.44463
460.393	14.61502
460.599	14.77535
460.805	13.70167
461.011	12.86875
461.217	12.72282
461.423	12.43009
461.629	11.73037
461.835	12.00411
462.041	11.69611
462.247	12.60436
462.453	11.57096
462.658	11.62908
462.864	12.07746
463.07	11.7295
463.276	11.79373
463.482	11.75168
463.688	12.36856
463.893	11.37235
464.099	11.57979
464.305	12.50043
464.511	11.55281
464.716	11.54433
464.922	12.26682
465.128	11.35903
465.333	12.77549
465.539	12.02252
465.745	11.80746
465.95	11.85004
466.156	13.31226
466.362	12.41773
466.567	11.88962
466.773	11.65167
466.978	12.70868
467.184	11.48343
467.389	10.98854
467.595	12.11693
467.8	11.60482
468.006	12.72704
468.211	12.49196
468.417	11.34841
468.622	12.27863
468.828	12.2852
469.033	12.20675
469.239	13.44507
469.444	11.86203
469.649	12.51291
469.855	11.96756
470.06	12.02564
470.266	11.69699
470.471	12.35516
470.676	12.42042
470.881	11.26635
471.087	12.82129
471.292	13.5228
471.497	11.47065
471.703	12.08987
471.908	11.82547
472.113	12.19345
472.318	12.62125
472.523	11.72659
472.729	12.47887
472.934	12.57313
473.139	12.01104
473.344	12.40231
473.549	12.83091
473.754	11.96223
473.959	13.77692
474.164	11.81081
474.369	12.13939
474.575	12.73136
474.78	12.31936
474.985	12.02536
475.19	11.35378
475.395	11.93403
475.6	12.29861
475.804	13.05362
476.009	12.33357
476.214	12.27381
476.419	12.26703
476.624	11.55876
476.829	12.08651
477.034	12.70894
477.239	12.19222
477.444	12.74163
477.648	12.83944
477.853	12.65837
478.058	12.40607
478.263	12.1821
478.468	11.98452
478.672	12.05489
478.877	13.2171
479.082	13.37658
479.287	12.7809
479.491	12.63211
479.696	12.08737
479.901	12.9772
480.105	13.04824
480.31	12.30092
480.515	12.63822
480.719	13.6376
480.924	12.38205
481.128	12.13626
481.333	12.86031
481.538	12.79041
481.742	13.32963
481.947	14.46474
482.151	15.71592
482.356	16.86287
482.56	19.42921
482.765	21.75072
482.969	25.60909
483.174	28.94552
483.378	33.33345
483.582	35.18603
483.787	37.79837
483.991	39.17229
484.196	39.98596
484.4	39.73689
484.604	39.96144
484.809	37.0581
485.013	34.99589
485.217	32.09095
485.422	28.85205
485.626	26.08348
485.83	24.36312
486.034	23.19894
486.239	23.38802
486.443	23.69219
486.647	24.19497
486.851	25.64997
487.055	27.4401
487.26	27.87985
487.464	29.1191
487.668	29.08987
487.872	29.96321
488.076	30.13115
488.28	29.22865
488.484	27.64984
488.688	26.79552
488.892	25.45533
489.096	23.74631
489.3	22.05076
489.504	20.56308
489.708	19.31495
489.912	18.72315
490.116	18.1852
490.32	17.81632
490.524	19.01457
490.728	20.09018
490.932	21.33575
491.136	22.56851
491.34	24.12011
491.544	24.76379
491.748	25.09977
491.951	25.2833
492.155	24.84278
492.359	24.19059
492.563	22.5057
492.767	21.35285
492.97	19.28329
493.174	17.33317
493.378	15.90447
493.582	14.16015
493.785	13.44669
493.989	13.46406
494.193	13.42733
494.396	13.15939
494.6	13.73801
494.804	13.33803
495.007	12.98026
495.211	13.05106
495.414	13.0373
495.618	13.47654
495.822	13.94247
496.025	13.27902
496.229	13.72843
496.432	13.07014
496.636	13.48156
496.839	13.3891
497.043	14.1754
497.246	13.72369
497.45	13.32233
497.653	13.6238
497.856	13.5293
498.06	13.21248
498.263	13.46262
498.467	13.48173
498.67	14.01886
498.873	13.78877
499.077	13.50424
499.28	13.51188
499.483	13.69561
499.686	13.96766
499.89	13.71386
500.093	13.99744
500.296	13.20332
500.499	14.36591
500.703	13.62197
500.906	13.79258
501.109	14.35609
501.312	13.51681
501.515	13.53098
501.719	13.81009
501.922	14.19679
502.125	13.63488
502.328	13.64126
502.531	13.08654
502.734	13.53529
502.937	12.89226
503.14	13.74168
503.343	13.34048
503.546	13.44797
503.749	13.34639
503.952	14.00249
504.155	13.33203
504.358	13.86154
504.561	13.73013
504.764	13.10874
504.967	13.77815
505.17	13.71653
505.373	14.42356
505.576	13.7609
505.778	14.12547
505.981	13.28225
506.184	14.34348
506.387	13.02258
506.59	14.78352
506.793	14.22898
506.995	14.01904
507.198	12.90646
507.401	14.04401
507.604	13.97046
507.806	13.39306
508.009	13.45972
508.212	14.27717
508.414	13.6003
508.617	13.75162
508.82	13.91059
509.022	14.67218
509.225	14.00048
509.427	13.29244
509.63	14.61945
509.833	14.03606
510.035	13.71187
510.238	13.2569
510.44	14.55198
510.643	13.15429
510.845	14.85346
511.048	14.17005
511.25	13.67048
511.453	13.91632
511.655	14.2139
511.858	13.86983
512.06	14.34428
512.262	14.15402
512.465	14.369
512.667	13.82485
512.869	13.4835
513.072	14.15239
513.274	14.40119
513.476	14.32369
513.679	14.43693
513.881	13.64847
514.083	14.83676
514.286	13.74096
514.488	13.63644
514.69	13.60936
514.892	13.3894
515.094	14.28858
515.297	13.68116
515.499	14.1189
515.701	13.52191
515.903	14.85633
516.105	14.78689
516.307	14.41562
516.509	13.12076
516.711	13.52125
516.913	14.16367
517.116	14.05487
517.318	13.87979
517.52	14.61727
517.722	14.45781
517.924	13.61626
518.126	14.36135
518.328	14.22588
518.529	14.99485
518.731	15.90241
518.933	14.34764
519.135	14.67195
519.337	15.22207
519.539	14.68459
519.741	13.68938
519.943	14.2113
520.145	14.1158
520.346	14.65919
520.548	14.12207
520.75	14.48576
520.952	14.10025
521.153	14.37568
521.355	14.41488
521.557	13.85081
521.759	14.28047
521.96	14.16323
522.162	13.6366
522.364	14.76469
522.565	13.97916
522.767	14.60325
522.969	14.71132
523.17	14.52449
523.372	14.44729
523.573	14.09865
523.775	14.18174
523.977	13.89791
524.178	15.22855
524.38	14.03372
524.581	14.6055
524.783	14.2303
524.984	14.67894
525.186	14.53272
525.387	15.25217
525.589	15.45412
525.79	15.70177
525.991	15.84665
526.193	16.57949
526.394	16.10025
526.596	17.07951
526.797	17.44661
526.998	17.27848
527.2	18.16634
527.401	20.40466
527.602	22.08351
527.803	25.32857
528.005	27.25892
528.206	29.53478
528.407	31.38477
528.608	32.08634
528.81	32.9576
529.011	32.62147
529.212	33.49249
529.413	31.94738
529.614	30.14548
529.815	28.26975
530.017	26.13098
530.218	23.15892
530.419	20.78087
530.62	19.80621
530.821	18.63421
531.022	16.85228
531.223	17.30237
531.424	16.90053
531.625	16.8806
531.826	16.56826
532.027	17.40536
532.228	18.82328
532.429	19.33475
532.63	20.1112
532.831	21.56243
533.032	21.91275
533.233	23.0406
533.433	22.865
533.634	23.32686
533.835	22.46387
534.036	21.78239
534.237	20.90233
534.438	19.54897
534.638	17.88047
534.839	16.90292
535.04	16.17308
535.241	15.25915
535.441	15.91815
535.642	15.56808
535.843	15.15086
536.043	15.48889
536.244	15.80977
536.445	16.30101
536.645	17.03887
536.846	16.86771
537.047	17.15115
537.247	16.11552
537.448	15.62748
537.648	15.22407
537.849	14.86133
538.049	14.81673
538.25	15.13594
538.451	15.06148
538.651	14.50428
538.851	15.15636
539.052	15.3814
539.252	15.0939
539.453	14.76108
539.653	14.95556
539.854	14.80668
540.054	14.95098
540.254	17.12023
540.455	18.79097
540.655	19.77134
540.855	22.05755
541.056	23.6158
541.256	24.12012
541.456	25.3876
541.657	25.28174
541.857	25.90188
542.057	24.71033
542.257	23.95645
542.458	23.74023
542.658	22.78063
542.858	20.47128
543.058	19.80995
543.258	18.85389
543.458	17.1279
543.659	16.43822
543.859	16.52025
544.059	15.99516
544.259	15.29564
544.459	15.76224
544.659	14.95998
544.859	15.41419
545.059	14.89351
545.259	15.60679
545.459	15.3055
545.659	15.65966
545.859	15.19398
546.059	15.38645
546.259	14.81469
546.459	14.65097
546.659	14.69115
546.859	15.57796
547.059	15.38889
547.258	15.40182
547.458	15.35109
547.658	14.77586
547.858	14.64012
548.058	15.23191
548.258	15.07027
548.457	14.81683
548.657	16.39828
548.857	15.07267
549.057	15.67014
549.256	15.39107
549.456	14.7654
549.656	13.97472
549.855	16.12788
550.055	14.7547
550.255	15.93992
550.454	15.3392
550.654	15.3795
550.853	15.90562
551.053	15.46851
551.253	15.30712
551.452	15.38347
551.652	14.4525
551.851	14.07848
552.051	14.78988
552.25	14.73177
552.45	14.63859
552.649	14.75538
552.849	14.57302
553.048	15.20216
553.248	15.64315
553.447	14.42648
553.646	15.49617
553.846	16.4953
554.045	15.74608
554.244	14.30208
554.444	15.8856
554.643	14.60498
554.842	16.01337
555.042	16.20455
555.241	14.63799
555.44	14.37275
555.64	15.14005
555.839	15.88917
556.038	15.30978
556.237	14.72966
556.436	15.05658
556.636	15.17122
556.835	14.47523
557.034	15.90627
557.233	14.90829
557.432	13.92058
557.631	15.56822
557.83	14.89165
558.029	14.67432
558.228	14.53145
558.427	14.50287
558.626	15.2579
558.825	14.3499
559.024	14.82865
559.223	15.92949
559.422	14.92377
559.621	15.29962
559.82	13.53547
560.019	15.04992
560.218	14.67355
560.417	13.47608
560.616	14.48127
560.815	17.00174
561.014	14.05872
561.212	16.10938
561.411	14.99856
561.61	14.08116
561.809	14.73794
562.008	16.26066
562.206	14.94583
562.405	15.46554
562.604	14.91395
562.803	15.09301
563.001	14.91288
563.2	14.23659
563.399	15.3171
563.597	14.42499
563.796	14.91816
563.995	14.27356
564.193	15.48839
564.392	14.85724
564.59	16.34171
564.789	13.92955
564.988	14.93224
565.186	15.28428
565.385	14.98765
565.583	14.93337
565.782	14.98597
565.98	15.06554
566.179	14.95497
566.377	14.65579
566.575	14.7439
566.774	16.08914
566.972	15.76239
567.171	16.52034
567.369	16.08751
567.567	15.2686
567.766	15.29184
567.964	13.81846
568.162	15.58067
568.361	16.0492
568.559	14.98943
568.757	15.2662
568.956	15.23239
569.154	15.27886
569.352	15.45742
569.55	15.22123
569.748	15.06659
569.947	14.5616
570.145	14.49625
570.343	14.51628
570.541	16.13683
570.739	14.31815
570.937	15.1768
571.135	15.30445
571.333	16.62936
571.532	16.49241
571.73	15.29734
571.928	15.88467
572.126	15.61003
572.324	15.1218
572.522	15.98811
572.72	17.04897
572.918	15.38464
573.116	15.67899
573.313	15.17909
573.511	15.22588
573.709	14.90024
573.907	15.83728
574.105	15.02084
574.303	14.29549
574.501	14.18248
574.699	15.5947
574.896	15.49505
575.094	15.78565
575.292	14.38896
575.49	15.89379
575.688	15.21503
575.885	16.19094
576.083	17.01778
576.281	15.72033
576.478	14.74621
576.676	15.65098
576.874	14.4791
577.071	15.27545
577.269	16.88297
577.467	15.16399
577.664	15.08489
577.862	15.91871
578.059	14.49434
578.257	15.84786
578.455	14.92197
578.652	15.44382
578.85	13.69639
579.047	15.32919
579.245	14.91175
579.442	15.18529
579.64	14.9834
579.837	13.96135
580.034	17.2493
580.232	14.94355
580.429	14.19198
580.627	15.52167
580.824	15.85582
581.021	15.6619
581.219	14.6379
581.416	14.57641
581.613	16.35272
581.811	16.18299
582.008	14.40114
582.205	15.93974
582.402	15.28783
582.6	16.77506
582.797	15.11386
582.994	15.51665
583.191	15.70583
583.388	15.0825
583.586	15.56151
583.783	16.07109
583.98	14.42675
584.177	15.262
584.374	13.12526
584.571	15.01315
584.768	14.94295
584.965	14.97887
585.162	15.78961
585.359	16.35606
585.556	15.00084
585.753	15.45488
585.95	13.96351
586.147	14.44624
586.344	15.49154
586.541	14.88547
586.738	14.22314
586.935	15.08558
587.132	14.55745
587.329	15.99193
587.526	15.1012
587.722	19.23145
587.919	14.18294
588.116	15.44502
588.313	16.11885
588.51	16.88741
588.706	15.06191
588.903	15.70959
589.1	16.07243
589.297	17.62367
589.493	15.24545
589.69	15.81714
589.887	14.7291
590.083	14.38746
590.28	14.779
590.477	16.16944
590.673	15.91555
590.87	16.45625
591.067	14.82219
591.263	15.54322
591.46	15.71865
591.656	15.03127
591.853	16.47244
592.049	14.72015
592.246	14.81814
592.442	15.91375
592.639	16.4461
592.835	14.59214
593.032	15.63299
593.228	14.11691
593.425	14.11578
593.621	14.15907
593.817	15.37729
594.014	14.777
594.21	15.7448
594.406	16.23877
594.603	15.81236
594.799	14.76281
594.995	13.51911
595.192	16.23408
595.388	15.08083
595.584	15.15907
595.78	14.28741
595.977	17.68584
596.173	16.7229
596.369	15.26002
596.565	14.66758
596.761	14.55659
596.957	16.59841
597.154	15.0755
597.35	15.12204
597.546	15.07585
597.742	16.05124
597.938	15.82976
598.134	14.79622
598.33	15.68494
598.526	16.60909
598.722	15.74434
598.918	16.86147
599.114	15.97157
599.31	14.24945
599.506	15.15934
599.702	14.50489
599.898	15.45927
600.094	15.839
600.29	15.73274
600.485	15.88822
600.681	14.55023
600.877	16.67501
601.073	15.38553
601.269	17.15788
601.465	16.57546
601.66	14.40492
601.856	13.71404
602.052	17.22898
602.248	15.02097
602.443	13.83037
602.639	14.40783
602.835	14.88233
603.03	14.66503
603.226	16.19994
603.422	14.7704
603.617	15.47891
603.813	15.30992
604.009	15.30215
604.204	16.56701
604.4	14.6565
604.595	16.57254
604.791	14.83951
604.986	15.98962
605.182	15.05945
605.377	15.25335
605.573	15.36183
605.768	15.81321
605.964	16.15403
606.159	16.14549
606.355	16.45813
606.55	15.24052
606.746	16.65469
606.941	15.39076
607.136	17.34783
607.332	17.9819
607.527	14.48706
607.722	15.7331
607.918	15.19181
608.113	14.77483
608.308	16.45788
608.503	16.01624
608.699	16.01771
608.894	16.23696
609.089	14.99128
609.284	16.11822
609.479	15.46652
609.675	16.38519
609.87	15.66033
610.065	16.56419
610.26	16.59024
610.455	16.68184
610.65	16.05514
610.845	16.13388
611.04	16.88921
611.235	15.86095
611.43	15.93733
611.625	15.09123
611.82	17.40981
612.015	15.41848
612.21	17.54034
612.405	14.5172
612.6	17.5375
612.795	17.41358
612.99	16.6318
613.185	14.59151
613.38	15.04301
613.575	15.69228
613.77	18.45161
613.965	14.2524
614.159	15.05741
614.354	16.97904
614.549	16.65317
614.744	16.29232
614.938	14.53423
615.133	14.16192
615.328	17.09969
615.523	16.4956
615.717	18.6229
615.912	15.12372
616.107	15.75045
616.301	15.22518
616.496	14.86041
616.691	17.26705
616.885	16.58035
617.08	18.67367
617.274	16.7181
617.469	17.74804
617.664	16.40016
617.858	15.15349
618.053	16.24102
618.247	15.32517
618.442	13.4034
618.636	17.09867
618.831	14.93122
619.025	14.95661
619.219	19.01927
619.414	12.61811
619.608	15.34528
619.803	14.91929
619.997	17.98487
620.191	16.79167
620.386	15.88895
620.58	15.46232
620.774	13.62967
620.969	13.99473
621.163	15.69613
621.357	14.47428
621.551	15.41157
621.746	15.64089
621.94	15.07694
622.134	19.40773
622.328	18.01926
622.522	14.22741
622.716	16.78881
622.911	16.91608
623.105	16.80112
623.299	16.01942
623.493	19.01548
623.687	14.89312
623.881	14.87538
624.075	16.37158
624.269	17.14012
624.463	13.55942
624.657	13.92069
624.851	16.38626
625.045	16.55198
625.239	16.70885
625.433	15.31465
625.627	17.85647
625.821	15.50651
626.015	15.18152
626.209	16.03131
626.403	14.41002
626.596	16.54698
626.79	16.8232
626.984	14.7172
627.178	16.54507
627.372	16.36982
627.565	16.71906
627.759	14.77877
627.953	15.02805
628.147	16.40575
628.34	16.87406
628.534	18.56993
628.728	15.83842
628.921	17.07946
629.115	16.77431
629.309	17.05838
629.502	17.18208
629.696	16.26397
629.89	15.77482
630.083	16.21209
630.277	16.39278
630.47	17.77185
630.664	15.43793
630.857	14.18378
631.051	16.85632
631.244	17.31021
631.438	16.9293
631.631	15.30689
631.825	17.53401
632.018	16.57997
632.212	18.28876
632.405	17.47727
632.598	15.09142
632.792	15.89355
632.985	13.13977
633.178	15.76806
633.372	15.7513
633.565	15.66369
633.758	17.5685
633.952	14.9252
634.145	14.84901
634.338	16.15294
634.531	15.36033
634.724	14.79762
634.918	16.14677
635.111	15.6516
635.304	15.53332
635.497	18.83304
635.69	16.50919
635.883	17.44367
636.077	14.67625
636.27	16.50683
636.463	16.23781
636.656	16.30678
636.849	15.83612
637.042	16.95608
637.235	18.30881
637.428	16.86676
637.621	16.39372
637.814	18.06968
638.007	17.99555
638.2	18.18989
638.393	18.63623
638.586	14.29191
638.778	15.76383
638.971	16.04534
639.164	18.05248
639.357	16.60545
639.55	18.18146
639.743	16.96408
639.935	16.78629
640.128	19.22936
640.321	17.60757
640.514	16.54488
640.707	19.42907
640.899	17.24146
641.092	14.25691
641.285	31.88779
641.477	13.30382
641.67	20.35795
641.863	18.22547
642.055	16.67776
642.248	16.56252
642.441	16.16389
642.633	17.15477
642.826	17.8951
643.018	18.23953
643.211	19.29671
643.403	19.76392
643.596	19.87047
643.788	18.91281
643.981	15.88861
644.173	17.81569
644.366	16.41388
644.558	14.00536
644.751	17.87988
644.943	14.64888
645.135	18.88817
645.328	19.31695
645.52	17.30371
645.712	17.88755
645.905	21.70165
646.097	14.88027
646.289	16.99007
646.482	19.95211
646.674	15.39155
646.866	18.67412
647.058	17.47547
647.251	15.03681
647.443	15.87787
647.635	16.53465
647.827	15.2459
648.019	15.28805
648.211	16.3732
648.404	16.97784
648.596	19.44531
648.788	17.16376
648.98	17.31376
649.172	17.68641
649.364	17.81217
649.556	14.47381
649.748	21.13191
649.94	15.37232
650.132	18.28741
650.324	15.56793
650.516	16.00294
650.708	18.95549
650.9	14.72829
651.092	14.36134
651.284	14.94199
651.476	15.49571
651.667	18.47024
651.859	19.33544
652.051	16.99288
652.243	17.3384
652.435	16.52293
652.627	17.80062
652.818	17.82735
653.01	14.8501
653.202	15.62998
653.394	16.15024
653.585	17.51994
653.777	24.40106
653.969	19.8121
654.16	19.22858
654.352	15.64939
654.544	17.01884
654.735	19.01026
654.927	17.4313
655.118	19.62308
655.31	18.5671
655.502	19.47146
655.693	16.75192
655.885	18.29491
656.076	19.95143
656.268	18.03615
656.459	20.04913
656.651	19.43614
656.842	16.62546
657.034	16.33709
657.225	18.91624
657.416	20.10741
657.608	19.9675
657.799	17.80184
657.99	19.97088
658.182	16.61426
658.373	16.48909
658.564	19.84845
658.756	18.73201
658.947	17.43113
659.138	16.3745
659.33	17.17062
659.521	16.86669
659.712	17.74844
659.903	17.5387
660.094	17.18319
660.286	15.6155
660.477	20.80585
660.668	19.08456
660.859	17.43073
661.05	15.65945
661.241	18.61576
661.432	18.35661
661.623	17.55272
661.814	16.74208
662.006	15.34457
662.197	18.53989
662.388	19.9611
662.579	18.4478
662.77	22.88681
662.96	22.80415
663.151	19.60786
663.342	14.78706
663.533	19.4749
663.724	17.75656
663.915	21.59593
664.106	17.92326
664.297	21.43567
664.488	19.3955
664.678	16.79487
664.869	19.75081
665.06	19.91119
665.251	18.25353
665.442	19.52396
665.632	16.144
665.823	21.67203
666.014	13.27567
666.204	19.46031
666.395	20.57614
666.586	22.60556
666.776	19.57828
666.967	21.84343
667.158	18.43734
667.348	20.98605
667.539	16.43563
667.729	19.84593
667.92	17.16061
668.111	20.38623
668.301	19.79776
668.492	18.26745
668.682	18.63149
668.873	18.56748
669.063	16.09109
669.253	19.46654
669.444	21.13275
669.634	18.66279
669.825	22.18023
670.015	21.43572
670.206	17.21477
670.396	22.38959
670.586	18.06229
670.777	19.48704
670.967	14.69225
671.157	18.01331
671.347	17.55979
671.538	21.68648
671.728	19.83714
671.918	22.65163
672.108	20.58736
672.299	18.21877
672.489	19.40826
672.679	17.23081
672.869	19.64942
673.059	23.63484
673.249	19.61461
673.44	16.42818
673.63	18.4406
673.82	21.02057
674.01	16.92799
674.2	19.83646
674.39	24.74498
674.58	20.16143
674.77	19.37374
674.96	18.25494
675.15	27.73576
675.34	21.39212
675.53	19.47252
675.72	18.16563
675.91	15.56006
676.099	23.5335
676.289	24.15326
676.479	21.49888
676.669	18.16859
676.859	20.55201
677.049	18.11598
677.238	19.51204
677.428	23.88446
677.618	20.18936
677.808	23.76424
677.997	20.49776
678.187	17.84074
678.377	19.35896
678.567	18.20616
678.756	18.57726
678.946	19.6774
679.136	16.91837
679.325	18.68116
679.515	17.90523
679.704	17.28977
679.894	21.71619
680.084	20.67454
680.273	22.37897
680.463	18.00616
680.652	18.1851
680.842	19.57848
681.031	21.98836
681.221	18.12218
681.41	21.28345
681.6	19.46511
681.789	21.0677
681.978	22.27261
682.168	20.41033
682.357	20.42131
682.547	21.04937
682.736	20.4074
682.925	22.84267
683.115	22.72368
683.304	21.83112
683.493	20.46486
683.682	21.49101
683.872	21.67255
684.061	22.86098
684.25	21.3395
684.439	25.86802
684.629	22.56654
684.818	28.09987
685.007	20.38009
685.196	19.84297
685.385	25.3166
685.574	21.4506
685.763	21.71079
685.952	21.61232
686.142	18.2362
686.331	24.43797
686.52	17.50568
686.709	25.79003
686.898	24.8943
687.087	22.77433
687.276	24.80624
687.465	24.26216
687.654	20.48207
687.842	24.74791
688.031	18.58281
688.22	25.19727
688.409	22.03645
688.598	22.11494
688.787	27.81355
688.976	21.78928
689.165	26.43603
689.353	20.62589
689.542	22.77329
689.731	24.3604
689.92	26.87737
690.108	23.53114
690.297	20.6005
690.486	21.96854
690.675	23.40867
690.863	25.94482
691.052	25.80533
691.241	22.81244
691.429	22.78252
691.618	25.40801
691.806	18.92331
691.995	20.99921
692.184	22.36862
692.372	20.87201
692.561	22.31004
692.749	22.572
692.938	30.71869
693.126	23.87195
693.315	21.48637
693.503	24.28501
693.692	25.26177
693.88	25.25094
694.068	28.17332
694.257	22.68503
694.445	24.2781
694.634	17.53129
694.822	24.71044
695.01	25.72999
695.199	28.73619
695.387	26.39547
695.575	26.16163
695.763	21.9485
695.952	21.81649
696.14	18.53642
696.328	21.03198
696.516	23.07286
696.705	23.56411
696.893	22.95119
697.081	18.27393
697.269	25.05549
697.457	20.01369
697.645	19.57771
697.833	25.02093
698.021	20.62516
698.21	21.4349
698.398	22.11665
698.586	19.64407
698.774	19.11734
698.962	22.32483
699.15	19.97868
699.338	18.71382
699.526	23.74831
699.714	20.84056
699.901	20.778
700.089	24.71741
700.277	20.68495
700.465	22.30518
700.653	24.41544
700.841	23.25546
701.029	20.37208
701.217	26.429
701.404	23.16581
701.592	27.11481
701.78	29.89429
701.968	22.50314
702.155	22.52491
702.343	20.19028
702.531	27.32442
702.718	23.89674
702.906	21.27901
703.094	21.94726
703.281	27.36099
703.469	22.94421
703.657	26.86822
703.844	33.70434
704.032	30.15994
704.219	22.90654
704.407	25.38153
704.595	28.50602
704.782	25.50034
704.97	24.2349
705.157	23.85283
705.345	30.97189
705.532	36.3229
705.719	28.23779
705.907	31.48527
706.094	27.53804
706.282	34.37937
706.469	27.86919
706.656	29.31639
706.844	28.2041
707.031	32.99804
707.218	31.0432
707.406	35.31574
707.593	32.64922
707.78	32.62062
707.968	30.70476
708.155	28.51686
708.342	32.85631
708.529	33.27467
708.716	32.00239
708.904	36.26639
709.091	32.75912
709.278	27.74487
709.465	38.41094
709.652	35.67462
709.839	34.47583
710.026	31.10317
710.213	24.84016
710.4	30.92845
710.587	32.09694
710.774	33.79441
710.961	33.18797
711.148	30.19787
711.335	33.42541
711.522	29.45786
711.709	32.01854
711.896	37.48855
712.083	33.78273
712.27	28.05071
712.457	31.55728
712.644	25.92973
712.831	38.00998
713.017	31.13979
713.204	33.54017
713.391	27.7072
713.578	33.135
713.765	35.01805
713.951	30.74189
714.138	40.3913
714.325	29.6453
714.512	28.15284
714.698	25.28272
714.885	33.34723
715.072	28.17969
715.258	27.47304
715.445	25.39459
715.631	31.45603
715.818	18.29569
716.005	25.01175
716.191	29.19821
716.378	25.54598
716.564	30.00989
716.751	23.25435
716.937	25.93056
717.124	29.66817
717.31	23.90687
717.497	33.45894
717.683	24.14266
717.869	35.3967
718.056	25.73781
718.242	28.53521
718.429	25.6569
718.615	23.1688
718.801	27.18326
718.988	30.92277
719.174	28.92427
719.36	25.35199
719.547	31.88365
719.733	28.39973
719.919	28.03842
720.105	29.11837
720.291	27.12618
720.478	27.57566
720.664	27.00707
720.85	25.08679
721.036	38.73273
721.222	33.87113
721.408	26.95685
721.595	34.31294
721.781	34.1482
721.967	31.96369
722.153	34.28652
722.339	30.42886
722.525	29.41485
722.711	23.38311
722.897	22.64015
723.083	26.36133
723.269	31.63217
723.455	39.7646
723.641	45.77885
723.827	28.5237
724.012	30.18592
724.198	27.35054
724.384	33.98719
724.57	30.02224
724.756	22.91988
724.942	20.53247
725.127	33.59797
725.313	34.03359
725.499	33.52398
725.685	37.04192
725.87	30.18547
726.056	24.94603
726.242	33.71692
726.428	21.60983
726.613	32.35075
726.799	26.87442
726.985	23.87994
727.17	21.51274
727.356	37.9592
727.541	24.8683
727.727	27.76721
727.913	31.7959
728.098	26.38084
728.284	32.12044
728.469	23.45675
728.655	25.20585
728.84	32.8794
729.026	32.17466
729.211	31.96894
729.397	30.38961
729.582	32.02462
729.767	28.72199
729.953	30.50772
730.138	34.63825
730.323	19.93447
730.509	24.27148
730.694	36.54052
730.879	32.02012
731.065	29.79109
731.25	40.068
731.435	32.3165
731.621	23.2116
731.806	26.7332
731.991	29.95531
732.176	23.05933
732.361	36.63049
732.547	30.54021
732.732	22.52169
732.917	39.46755
733.102	24.46857
733.287	26.11086
733.472	28.97803
733.657	28.63332
733.842	22.94698
734.027	26.69564
734.212	28.38718
734.397	25.94105
734.582	29.62142
734.767	33.46377
734.952	35.52053
735.137	18.54501
735.322	36.1839
735.507	31.24995
735.692	29.70888
735.877	39.79848
736.062	38.28419
736.247	31.49182
736.431	29.29741
736.616	35.13308
736.801	31.28351
736.986	29.32449
737.171	25.66071
737.355	23.93532
737.54	36.71869
737.725	30.18007
737.909	44.04196
738.094	27.42642
738.279	34.06697
738.463	28.12935
738.648	33.30762
738.833	31.85287
739.017	40.95999
739.202	27.98571
739.386	28.62767
739.571	25.57946
739.756	34.075
739.94	29.75887
740.125	32.15455
740.309	26.1782
740.494	33.87265
740.678	30.49952
740.863	33.24886
741.047	30.70195
741.231	38.22328
741.416	26.9734
741.6	39.10546
741.785	26.19096
741.969	35.91931
742.153	38.28904
742.338	20.50035
742.522	30.63015
742.706	34.62476
742.89	24.40761
743.075	30.92464
743.259	38.21945
743.443	37.57705
743.627	38.04809
743.812	43.75414
743.996	22.43415
744.18	30.2442
744.364	28.528
744.548	44.9594
744.732	29.42378
744.916	37.06638
745.1	34.69569
745.285	29.34746
745.469	34.15781
745.653	40.01537
745.837	25.04977
746.021	44.27554
746.205	38.34023
746.389	32.74441
746.573	30.24412
746.757	40.38945
746.94	29.2599
747.124	37.89401
747.308	24.74725
747.492	38.30423
747.676	27.52067
747.86	45.90059
748.044	28.76704
748.227	22.63564
748.411	54.56301
748.595	32.04018
748.779	27.04083
748.963	33.89581
749.146	31.38859
749.33	26.58499
749.514	26.88594
749.697	38.63552
749.881	27.31025
750.065	26.35443
750.248	32.24433
750.432	45.85113
750.616	31.09254
750.799	25.50808
750.983	46.46323
751.166	46.93945
751.35	22.93516
751.533	38.30678
751.717	41.18873
751.9	41.09864
752.084	30.74956
752.267	27.83728
752.451	27.59721
752.634	31.93762
752.818	35.54348
753.001	37.06049
753.184	39.42197
753.368	34.03285
753.551	14.89785
753.734	27.23836
753.918	47.35941
754.101	28.18719
754.284	37.1
754.467	29.34698
754.651	28.39476
754.834	26.36417
755.017	38.57612
755.2	40.32208
755.384	26.45389
755.567	37.15157
755.75	37.46834
755.933	31.79907
756.116	37.11613
756.299	28.65044
756.482	28.04639
756.665	36.54635
756.848	31.78307
757.032	34.26181
757.215	24.33035
757.398	26.78495
757.581	27.9366
757.764	51.48262
757.947	32.83359
758.129	38.42289
758.312	17.02951
758.495	30.82293
758.678	31.30427
758.861	30.11589
759.044	45.01064
759.227	25.40554
759.41	27.656
759.592	36.64826
759.775	31.03972
759.958	38.06449
760.141	25.77097
760.324	48.67142
760.506	42.47487
760.689	38.21554
760.872	47.63192
761.054	36.00233
761.237	32.06125
761.42	33.63481
761.602	38.90035
761.785	34.80676
761.968	40.2944
762.15	44.53095
762.333	31.92475
762.515	36.25588
762.698	30.76639
762.88	39.03364
763.063	35.27649
763.245	39.41307
763.428	27.96345
763.61	30.19852
763.793	25.78694
763.975	35.11762
764.158	31.11513
764.34	29.2581
764.522	27.59671
764.705	32.33314
764.887	43.0537
765.069	23.60272
765.252	36.17837
765.434	36.89975
765.616	34.41892
765.799	28.61308
765.981	37.59881
766.163	28.3934
766.345	41.75289
766.528	28.5848
766.71	21.09611
766.892	34.41485
767.074	41.78227
767.256	31.49118
767.438	44.19096
767.62	35.39705
767.802	49.52832
767.985	38.22379
768.167	47.52484
768.349	29.87883
768.531	36.56768
768.713	35.19467
768.895	39.41417
769.077	36.10087
769.259	53.20746
769.441	71.15768
769.623	40.10309
769.804	46.31691
769.986	43.85222
770.168	50.42574
770.35	59.52229
770.532	48.99621
770.714	50.58812
770.896	51.06563
771.077	25.9288
771.259	53.68394
771.441	47.45277
771.623	57.59141
771.804	67.47973
771.986	29.09764
772.168	38.6208
772.35	54.80721
772.531	67.30879
772.713	45.76228
772.894	58.16751
773.076	44.45942
773.258	40.66635
773.439	60.00916
773.621	65.4111
773.802	35.01343
773.984	40.25813
774.166	48.27747
774.347	63.95819
774.529	56.91735
774.71	26.17248
774.891	44.7414
775.073	40.98829
775.254	58.73576
775.436	39.17681
775.617	71.70899
775.799	40.34911
775.98	60.28212
776.161	65.76921
776.343	67.23018
776.524	45.42011
776.705	42.19739
776.886	27.45947
777.068	47.57673
777.249	96.39194
777.43	69.86316
777.611	35.48242
777.793	42.03603
777.974	68.26943
778.155	39.55883
778.336	35.93816
778.517	76.10498
778.698	36.8124
778.879	25.99657
779.061	18.95536
779.242	51.39977
779.423	52.04073
779.604	39.68004
779.785	43.46743
779.966	47.87807
780.147	58.24408
780.328	58.47139
780.509	79.16895
780.69	57.6866
780.871	40.18549
781.051	31.5419
781.232	47.2288
781.413	46.52108
781.594	44.00124
781.775	41.14521
781.956	38.39776
782.137	24.91673
782.317	40.97909
782.498	46.51713
782.679	47.51132
782.86	49.85131
783.04	38.96375
783.221	48.71747
783.402	69.3327
783.583	45.50315
783.763	57.38784
783.944	40.74532
784.124	31.59854
784.305	67.66455
784.486	55.09254
784.666	45.9094
784.847	29.33947
785.027	89.88992
785.208	41.06096
785.388	38.62664
785.569	40.58572
785.749	43.29686
785.93	41.81056
786.11	29.76985
786.291	53.53756
786.471	47.84181
786.652	58.1217
786.832	44.61688
787.012	47.66471
787.193	34.14274
787.373	48.14461
787.553	40.30227
787.734	50.39185
787.914	42.1896
788.094	59.20928
788.275	49.47613
788.455	42.27341
788.635	30.84527
788.815	48.90027
788.995	35.8924
789.176	30.71877
789.356	37.61033
789.536	44.23682
789.716	52.33787
789.896	38.30675
790.076	39.2299
790.256	50.85598
790.436	23.83261
790.616	35.60539
790.796	49.05857
790.976	41.58811
791.156	36.54202
791.336	51.37952
791.516	49.82639
791.696	42.86136
791.876	32.06077
792.056	47.22415
792.236	57.59624
792.416	56.56206
792.596	49.35025
792.776	50.49434
792.956	55.55067
793.135	68.41934
793.315	35.51572
793.495	58.62986
793.675	56.92307
793.854	54.62968
794.034	59.51643
794.214	35.41949
794.394	57.10695
794.573	63.071
794.753	49.74373
794.933	37.36835
795.112	48.3959
795.292	59.51788
795.472	69.50061
795.651	32.51648
795.831	47.21281
796.01	42.22871
796.19	43.13776
796.369	46.25699
796.549	51.31035
796.728	45.89565
796.908	31.9673
797.087	34.76373
797.267	43.35953
797.446	32.33477
797.626	52.85362
797.805	51.85843
797.984	37.26345
798.164	55.59488
798.343	37.46874
798.522	49.93399
798.702	48.29633
798.881	34.0963
799.06	43.92692
799.239	27.20628
799.419	36.78995
799.598	68.09818
799.777	52.41791
799.956	59.90681
800.136	43.85119
800.315	36.67072
800.494	51.08632
800.673	59.94595
800.852	54.41003
801.031	60.25786
801.21	52.91891
801.389	42.6506
801.568	48.5232
801.747	71.26872
801.926	48.15339
802.105	65.59383
802.284	41.38403
802.463	67.12074
802.642	52.85506
802.821	49.49912
803	64.8537
803.179	57.48532
803.358	61.51721
803.537	39.15867
803.716	45.62645
803.895	39.46303
804.073	44.75505
804.252	38.95161
804.431	51.47476
804.61	45.96649
804.789	56.67604
804.967	41.30931
805.146	42.40584
805.325	75.8859
805.503	51.4861
805.682	34.25328
805.861	91.55239
806.039	65.85167
806.218	42.97684
806.397	48.22713
806.575	46.68805
806.754	52.21177
806.932	37.02917
807.111	60.75801
807.289	58.66139
807.468	49.31216
807.646	60.51896
807.825	56.72097
808.003	49.42637
808.182	61.31555
808.36	48.61527
808.539	37.67112
808.717	66.79813
808.895	39.70016
809.074	52.86474
809.252	47.9577
809.43	57.61727
809.609	64.07313
809.787	72.70382
809.965	45.93383
810.144	50.51
810.322	47.90003
810.5	53.52826
810.678	44.0508
810.856	76.97337
811.035	62.87265
811.213	59.51556
811.391	68.29675
811.569	52.53713
811.747	98.04396
811.925	64.34264
812.103	40.65386
812.281	51.60075
812.459	72.98909
812.637	76.02349
812.816	63.00109
812.994	79.73161
813.171	67.60042
813.349	55.83312
813.527	62.33461
813.705	68.49832
813.883	86.55866
814.061	62.29306
814.239	75.72739
814.417	85.09726
814.595	58.37754
814.773	57.04328
814.95	54.55015
815.128	56.69152
815.306	52.46453
815.484	48.41102
815.662	41.57718
815.839	37.21046
816.017	44.09349
816.195	67.88028
816.372	45.01225
816.55	62.19648
816.728	73.10872
816.905	48.44259
817.083	73.24494
817.261	50.42848
817.438	96.20543
817.616	77.11575
817.793	45.4615
817.971	62.62204
818.148	64.03933
818.326	70.26868
818.503	55.36975
818.681	76.92848
818.858	48.17255
819.036	50.58398
819.213	53.33843
819.391	42.50284
819.568	42.7282
819.745	39.11451
819.923	61.31104
820.1	49.25742
820.277	41.64533
820.455	46.47485
820.632	49.20761
820.809	52.35995
820.986	37.95844
821.164	32.98356
821.341	31.31841
821.518	41.87646
821.695	33.70105
821.872	31.69176
822.05	29.50498
822.227	26.7189
822.404	27.59467
822.581	29.78174
822.758	27.51599
822.935	27.68863
823.112	29.69306
823.289	27.29035
823.466	30.37502
823.643	29.5232
823.82	32.80994
823.997	31.07073
824.174	33.90146
824.351	40.97866
824.528	39.56579
824.705	37.34853
824.882	39.6771
825.059	46.6803
825.236	38.03141
825.412	39.34136
825.589	43.81338
825.766	55.11538
825.943	39.58429
826.12	43.32456
826.296	35.19294
826.473	40.35837
826.65	40.13924
826.827	45.13784
827.003	34.03322
827.18	37.30534
827.357	40.5184
827.533	35.44392
827.71	25.99948
827.887	33.41431
828.063	36.30181
828.24	32.48118
828.416	38.90407
828.593	34.70766
828.769	44.55461
828.946	45.38379
829.122	48.13179
829.299	45.78077
829.475	35.04281
829.652	45.56251
829.828	65.42113
830.005	46.01294
830.181	59.1195
830.357	47.73957
830.534	60.70189
830.71	49.92455
830.886	61.54596
831.063	58.93435
831.239	69.7862
831.415	41.31108
831.592	70.08051
831.768	51.04781
831.944	43.15025
832.12	76.85579
832.296	72.01055
832.473	61.06394
832.649	44.4672
832.825	60.95979
833.001	40.95574
833.177	54.73041
833.353	50.14279
833.529	34.94055
833.705	47.22546
833.881	34.60981
834.058	35.14533
834.234	37.04172
834.41	37.4421
834.586	31.04059
834.761	35.07347
834.937	38.97634
835.113	38.63561
835.289	34.99055
835.465	39.83064
835.641	37.16684
835.817	40.50083
835.993	59.0504
836.169	37.26307
836.344	52.30109
836.52	56.22356
836.696	50.98181
836.872	45.59583
837.048	101.40236
837.223	49.54963
837.399	77.08955
837.575	66.39863
837.75	63.99013
837.926	82.26434
838.102	113.84257
838.277	94.85594
838.453	126.60116
838.628	123.43442
838.804	54.34681
838.98	107.41518
839.155	65.64199
839.331	82.35382
839.506	60.31275
839.682	62.64109
839.857	83.1462
840.033	94.91104
840.208	50.95075
840.384	31.82272
840.559	53.12896
840.734	72.30781
840.91	89.80407
841.085	59.57982
841.26	59.28761
841.436	54.07826
841.611	54.06367
841.786	75.97702
841.962	94.94369
842.137	64.94847
842.312	49.83681
842.487	61.26186
842.663	52.98721
842.838	62.79884
843.013	161.95641
843.188	86.11645
843.363	92.2186
843.538	134.55546
843.714	140.08323
843.889	144.47773
844.064	155.57859
844.239	127.32631
844.414	135.86565
844.589	96.34733
844.764	169.91715
844.939	169.07826
845.114	184.34641
845.289	174.79577
845.464	241.8072
845.639	162.575
845.814	88.75895
845.989	102.58539
846.163	119.02698
846.338	123.59988
846.513	172.28183
846.688	113.89689
846.863	120.53464
847.038	111.13339
847.212	121.46303
847.387	128.41395
847.562	128.5378
847.737	160.78611
847.911	70.24327
848.086	85.2995
848.261	264.13539
848.435	118.02453
848.61	162.37609
848.785	92.04028
848.959	174.40392
849.134	223.97349
849.308	235.4239
849.483	131.56446
849.658	199.1669
849.832	109.86687
850.007	101.43751
850.181	257.39438
850.356	99.1262
850.53	254.40261
850.705	88.17952
850.879	59.37041
851.053	120.1628
851.228	118.38089
851.402	141.69678
851.577	179.87737
851.751	190.75811
851.925	134.34346
852.099	69.89629
852.274	94.17303
852.448	120.0229
852.622	136.74189
852.797	126.74857
852.971	122.18275
853.145	130.07026
853.319	354.48475
853.493	189.03259
853.668	110.9889
853.842	233.20948
854.016	192.63181
854.19	218.32324
854.364	135.63159
854.538	139.7958
854.712	198.38665
854.886	127.04195
855.06	121.73708
855.234	61.14059
855.408	199.18452
855.582	177.70401
855.756	179.35002
855.93	226.32018
856.104	162.62754
856.278	178.79577
856.452	137.63775
856.626	165.26067
856.8	272.30306
856.973	169.30641
857.147	150.94872
857.321	149.85288
857.495	183.10769
857.669	129.09823
857.842	114.86673
858.016	186.39373
858.19	98.39897
858.364	298.70627
858.537	118.66145
858.711	144.01294
858.885	120.85435
859.058	111.85846
859.232	71.36308
859.405	86.22497
859.579	180.55608
859.753	149.21645
859.926	99.99368
860.1	78.65411
860.273	130.08306
860.447	212.00798
860.62	116.40001
860.794	262.00525
860.967	149.45354
861.141	188.93301
861.314	272.22903
861.487	162.75493
861.661	212.01087
861.834	211.48585
862.008	190.46269
862.181	140.23541
862.354	145.52315
862.528	162.56958
862.701	112.73798
862.874	84.50181
863.047	126.44155
863.221	120.5945
863.394	65.72429
863.567	218.21313
863.74	54.18393
863.913	183.95897
864.087	158.27197
864.26	190.65526
864.433	134.58397
864.606	232.57877
864.779	147.71938
864.952	77.59625
865.125	113.46515
865.298	137.99177
865.471	140.23412
865.644	267.96835
865.817	215.03517
865.99	173.37318
866.163	202.11325
866.336	124.54856
866.509	137.53067
866.682	124.37336
866.855	202.05713
867.028	92.93392
867.2	163.56852
867.373	67.64385
867.546	145.94325
867.719	266.40222
867.892	172.88935
868.064	100.41193
868.237	162.21033
868.41	143.0248
868.583	88.07592
868.755	95.85296
868.928	140.71749
869.101	279.88825
869.273	198.61182
869.446	169.42883
869.619	196.79263
869.791	134.60692
869.964	197.20761
870.136	187.76451
870.309	146.86315
870.481	155.407
870.654	80.16306
870.826	156.45981
870.999	125.93402
871.171	186.22169
871.344	118.44689
871.516	140.42061
871.689	104.89675
871.861	152.72899
872.033	105.27062
872.206	118.1367
872.378	192.12328
872.55	131.21399
872.723	87.27574
872.895	127.52869
873.067	200.78538
873.24	217.86693
873.412	120.57852
873.584	132.5057
873.756	122.04808
873.928	164.3966
874.101	164.83833
874.273	173.52169
874.445	69.46304
874.617	92.35815
874.789	150.58275
874.961	127.12509
875.133	169.02562
875.305	143.69586
875.477	96.23991
875.649	83.8314
875.821	105.38786
875.993	238.10351
876.165	98.86422
876.337	159.72677
876.509	128.13387
876.681	157.30556
876.853	158.23175
877.025	153.28159
877.197	104.42498
877.369	98.32186
877.541	192.48647
877.712	62.63638
877.884	98.43485
878.056	172.67818
878.228	101.00572
878.4	166.66569
878.571	100.76233
878.743	77.59222
878.915	154.00187
879.086	94.38425
879.258	113.46322
879.43	104.91993
879.601	93.57018
879.773	97.96643
879.945	34.31683
880.116	49.57763
880.288	36.11562
880.459	37.99447
880.631	32.64802
880.802	37.02032
880.974	35.20154
881.145	29.23324
881.317	34.97393
881.488	29.83506
881.66	31.94473
881.831	30.39997
882.002	37.49624
882.174	31.74863
882.345	36.86576
882.517	27.90228
882.688	41.10609
882.859	38.16092
883.03	51.23094
883.202	49.93956
883.373	47.05285
883.544	47.15991
883.715	69.85155
883.887	61.41179
884.058	55.77497
884.229	73.65853
884.4	73.14131
884.571	80.37807
884.742	72.09568
884.914	76.98576
885.085	102.08351
885.256	121.87336
885.427	103.29249
885.598	116.38207
885.769	123.33782
885.94	117.35921
886.111	84.16099
886.282	133.62006
886.453	114.11292
886.624	87.43644
886.795	131.00002
886.966	115.59893
887.136	143.01896
887.307	101.13092
887.478	170.79219
887.649	157.34257
887.82	156.13238
887.991	126.23139
888.161	166.70472
888.332	167.45993
888.503	89.15407
888.674	214.53721
888.844	225.34939
889.015	184.26249
889.186	90.65606
889.356	214.84542
889.527	91.2703
889.698	356.34584
889.868	127.48704
890.039	155.69175
890.209	144.98914
890.38	185.78521
890.551	161.45778
890.721	230.00542
890.892	186.11906
891.062	125.92696
891.233	162.90322
891.403	130.25274
891.574	105.5516
891.744	131.85261
891.914	179.20379
892.085	140.60193
892.255	68.61599
892.425	216.52917
892.596	176.30967
892.766	162.73656
892.936	222.29434
893.107	185.11995
893.277	111.66477
893.447	85.99253
893.618	74.62198
893.788	123.40241
893.958	75.16335
894.128	75.43442
894.298	82.24507
894.468	111.45105
894.639	57.19059
894.809	45.2194
894.979	63.43927
895.149	72.81393
895.319	60.01095
895.489	79.14591
895.659	95.15843
895.829	70.3289
895.999	72.61582
896.169	60.10959
896.339	64.38188
896.509	125.92023
896.679	140.62564
896.849	140.38497
897.019	190.51191
897.189	148.21192
897.358	138.92073
897.528	195.65252
897.698	80.99228
897.868	176.89426
898.038	288.57098
898.208	269.72328
898.377	101.18734
898.547	278.66179
898.717	433.47172
898.886	183.60423
899.056	265.37451
899.226	392.75516
899.395	244.69875
899.565	308.45832
899.735	203.36459
899.904	327.00534
900.074	288.40111
900.244	142.66373
900.413	502.30404
900.583	132.13103
900.752	198.42473
900.922	313.60901
901.091	54.52425
901.261	266.54127
901.43	270.45595
901.599	257.4926
901.769	550.40783
901.938	303.51646
902.108	298.80093
902.277	368.22224
902.446	120.21114
902.616	130.78233
902.785	175.08508
902.954	293.78668
903.124	197.34913
903.293	157.42823
903.462	94.82382
903.631	124.0038
903.801	96.25066
903.97	57.91503
904.139	91.76566
904.308	70.46224
904.477	59.03826
904.646	40.6262
904.816	55.19876
904.985	76.80086
905.154	112.34328
