Data from WindowProjectSample_Transmission__79__00079.txt Node

Date: Sat May 03 18:02:49 EDT 2025
User: jessi
Spectrometer: SR400872
Trigger mode: 0
Integration Time (sec): 5.000010E-1
Scans to average: 6
Electric dark correction enabled: true
Nonlinearity correction enabled: true
Boxcar width: 0
XAxis mode: Wavelengths
Number of Pixels in Spectrum: 3648
>>>>>Begin Spectral Data<<<<<
184.909	3383.36866
185.132	3873.64501
185.355	-4090.43031
185.578	4158.65976
185.801	-390.82917
186.024	-4824.63343
186.247	1630.72676
186.47	577.54364
186.693	-77.37377
186.916	2235.30295
187.139	3177.081
187.362	-1869.37501
187.585	5331.55027
187.808	23377.75326
188.031	28.12092
188.254	-3981.37035
188.476	559.58308
188.699	3546.99967
188.922	-191.14363
189.145	-6782.87103
189.368	-423.87642
189.591	-611.44917
189.813	-3229.85913
190.036	970.21484
190.259	-7723.24351
190.482	1352.63766
190.705	3993.52194
190.927	-2003.73984
191.15	-6457.21482
191.373	6014.31197
191.595	-1176.81034
191.818	2057.26948
192.041	-784.90451
192.263	2036.45016
192.486	-2007.34872
192.709	-22648.08695
192.931	1867.29005
193.154	-3803.04999
193.377	-2245.1337
193.599	4858.97753
193.822	1825.59561
194.044	6002.76313
194.267	932.67694
194.489	-287.29206
194.712	2632.97413
194.934	8522.32449
195.157	-25019.20956
195.379	2274.42229
195.602	1777.51479
195.824	1353.87414
196.047	44665.30207
196.269	3284.69371
196.492	-1834.53621
196.714	-1229.27284
196.936	1839.41656
197.159	-12716.70984
197.381	-320.51993
197.604	-5789.26948
197.826	-17473.7537
198.048	9437.48093
198.271	-8527.55235
198.493	4635.99705
198.715	3454.82487
198.938	-707.71742
199.16	-17516.85765
199.382	1182.59742
199.604	-1770.45217
199.827	-3579.58414
200.049	2447.75716
200.271	-7128.54153
200.493	-48912.28476
200.715	3503.2286
200.938	-3082.60794
201.16	-2582.04765
201.382	-1606.83161
201.604	-3120.52604
201.826	3306.96093
202.048	3539.01501
202.27	-1041.93061
202.492	-3282.95992
202.715	-1188.6058
202.937	-16041.51963
203.159	2442.46195
203.381	2610.739
203.603	-2952.27629
203.825	-872.13435
204.047	56769.72893
204.269	-1361.96581
204.491	-1251.10511
204.713	65266.77667
204.935	-3423.43277
205.156	-885.10735
205.378	-4505.97507
205.6	-1186.76144
205.822	2376.49612
206.044	-353.63865
206.266	6495.59004
206.488	787.34678
206.71	3361.40208
206.932	1454.09223
207.153	-1667.31356
207.375	-2736.56184
207.597	3724.9899
207.819	29678.26432
208.041	3926.93483
208.262	-1660.63587
208.484	-1021.997
208.706	-1450.77177
208.927	2978.19706
209.149	4677.11647
209.371	-5215.51067
209.593	310.07141
209.814	-30328.84321
210.036	2413.73504
210.258	-744.04932
210.479	3909.89723
210.701	-3569.13281
210.922	-11239.22784
211.144	-865.83682
211.366	5072.82421
211.587	-1947.74323
211.809	-4971.78464
212.03	-869.97543
212.252	-632.27275
212.473	3289.93823
212.695	-679.20996
212.916	-876.19438
213.138	534.24829
213.359	-1344.18118
213.581	13327.53306
213.802	-1747.75901
214.024	-2549.52087
214.245	-6443.44927
214.466	-258.33735
214.688	-2888.87651
214.909	-18914.57701
215.131	-4553.66683
215.352	-2523.90863
215.573	11152.74188
215.795	1632.37742
216.016	6598.63151
216.237	-521.2698
216.459	6711.07354
216.68	-3336.9566
216.901	-2870.01393
217.122	-2024.86031
217.344	-6848.02863
217.565	-2844.15647
217.786	2295.64924
218.007	1872.48603
218.228	-502.14747
218.45	-4560.90862
218.671	1590.1514
218.892	3546.39065
219.113	1569.82662
219.334	425.67041
219.555	-6852.87023
219.776	12299.04793
219.997	3937.85478
220.219	1759.92792
220.44	1082.56187
220.661	991.67667
220.882	-2679.6145
221.103	-969.39434
221.324	2476.81385
221.545	3057.20086
221.766	-3332.1139
221.987	-466.9575
222.208	-10628.7739
222.429	167021.67297
222.65	-253.47273
222.87	-10008.70625
223.091	2682.58186
223.312	-1272.77339
223.533	2694.51833
223.754	2070.87599
223.975	2761.12074
224.196	-6313.21803
224.417	-2569.06086
224.637	7646.43646
224.858	1382.05658
225.079	1256.30621
225.3	1112.36634
225.521	4839.93462
225.741	866.80899
225.962	1157.02379
226.183	-665.28268
226.404	1429.51582
226.624	1141.42416
226.845	1591.11343
227.066	861.28539
227.286	603.88817
227.507	194.84988
227.728	197.48404
227.948	276.3181
228.169	85.95229
228.389	86.2594
228.61	46.80602
228.831	66.19438
229.051	8.19726
229.272	35.48464
229.492	51.77158
229.713	15.66844
229.933	39.68789
230.154	33.45905
230.374	54.50357
230.595	41.26709
230.815	27.96813
231.036	40.36364
231.256	-5.58406
231.477	77.43057
231.697	43.59641
231.917	46.94612
232.138	63.27074
232.358	126.79149
232.579	127.21775
232.799	18.35697
233.019	107.18814
233.24	145.28527
233.46	44.21478
233.68	74.47684
233.901	51.63753
234.121	36.88585
234.341	12.83496
234.561	-2.62336
234.782	24.77338
235.002	78.64385
235.222	-2.67971
235.442	70.79393
235.662	34.22433
235.883	79.26546
236.103	64.35982
236.323	44.49591
236.543	33.86731
236.763	50.38226
236.983	52.38925
237.203	50.16486
237.423	73.51714
237.643	104.53166
237.864	88.75854
238.084	24.39991
238.304	38.29816
238.524	59.18985
238.744	42.75316
238.964	73.56513
239.184	69.36894
239.404	75.63564
239.624	39.70539
239.843	64.92567
240.063	35.1046
240.283	27.57763
240.503	27.09663
240.723	28.18156
240.943	14.65302
241.163	20.1941
241.383	15.19239
241.603	6.74852
241.822	9.2983
242.042	6.77499
242.262	8.38755
242.482	9.2345
242.702	11.42657
242.921	3.42061
243.141	8.48118
243.361	6.91929
243.581	9.98083
243.8	8.93149
244.02	5.932
244.24	10.72537
244.459	10.78219
244.679	20.52296
244.899	13.73794
245.118	16.17911
245.338	13.05736
245.558	15.36647
245.777	9.0284
245.997	10.48515
246.216	10.65396
246.436	5.82811
246.655	4.41551
246.875	3.51585
247.094	6.49507
247.314	2.22813
247.533	3.55442
247.753	4.84987
247.972	3.48048
248.192	1.34996
248.411	2.10564
248.631	4.24786
248.85	5.04018
249.07	4.12576
249.289	6.98353
249.508	5.37033
249.728	7.92892
249.947	8.49398
250.166	9.41382
250.386	5.66157
250.605	8.0601
250.824	12.0602
251.044	9.01112
251.263	27.85469
251.482	14.83565
251.701	13.99024
251.921	0.46894
252.14	4.59823
252.359	4.71649
252.578	11.41488
252.798	3.50308
253.017	9.65461
253.236	5.58525
253.455	6.43473
253.674	13.41596
253.893	5.87745
254.112	9.17991
254.331	12.84378
254.551	10.9628
254.77	5.00883
254.989	16.65548
255.208	13.37503
255.427	16.37397
255.646	14.19617
255.865	24.49339
256.084	9.55513
256.303	13.11496
256.522	15.50033
256.741	3.24802
256.96	5.20498
257.179	9.0664
257.397	12.64946
257.616	6.35257
257.835	7.81234
258.054	16.46083
258.273	10.34658
258.492	12.13802
258.711	6.79254
258.93	3.23605
259.148	4.36852
259.367	4.51729
259.586	5.79918
259.805	2.72094
260.023	5.19768
260.242	4.08679
260.461	2.98809
260.68	1.73003
260.898	4.83099
261.117	1.6629
261.336	1.10274
261.554	4.05916
261.773	4.08186
261.992	0.9658
262.21	4.01562
262.429	4.81076
262.648	8.06647
262.866	9.20652
263.085	6.543
263.303	5.56872
263.522	9.48071
263.74	10.09189
263.959	16.34571
264.178	8.14103
264.396	7.88416
264.615	5.45847
264.833	13.00823
265.051	11.03801
265.27	10.8491
265.488	12.30982
265.707	7.51862
265.925	12.33201
266.144	5.51621
266.362	7.68505
266.58	6.59719
266.799	5.22507
267.017	6.59363
267.235	6.02843
267.454	3.6869
267.672	2.12971
267.89	4.77049
268.109	5.51686
268.327	4.91218
268.545	1.15468
268.763	5.29363
268.982	2.14699
269.2	5.70246
269.418	3.44747
269.636	2.56132
269.854	4.93493
270.073	4.01377
270.291	1.82447
270.509	1.86506
270.727	4.89727
270.945	7.88538
271.163	8.03355
271.381	1.80531
271.599	3.39919
271.817	5.84047
272.036	2.1486
272.254	3.41965
272.472	2.93643
272.69	2.8678
272.908	2.65465
273.126	4.81045
273.344	6.14362
273.562	1.94438
273.779	2.71424
273.997	4.14348
274.215	4.95829
274.433	3.35405
274.651	5.07411
274.869	5.27469
275.087	3.09523
275.305	4.66222
275.523	2.66411
275.74	3.618
275.958	5.92099
276.176	8.72925
276.394	2.95345
276.612	4.27396
276.829	3.49066
277.047	3.15055
277.265	3.35003
277.483	3.95259
277.7	5.06753
277.918	3.68765
278.136	7.00615
278.353	3.82867
278.571	1.81301
278.789	5.91355
279.006	1.00842
279.224	3.35807
279.442	5.44591
279.659	4.00637
279.877	2.749
280.094	6.04859
280.312	1.29781
280.529	4.00062
280.747	1.46666
280.964	3.03985
281.182	6.63549
281.399	2.97134
281.617	4.63534
281.834	3.05854
282.052	2.25629
282.269	3.53319
282.487	2.59661
282.704	2.17099
282.921	2.50313
283.139	3.59071
283.356	4.73855
283.574	3.92923
283.791	2.07793
284.008	5.68803
284.226	3.22161
284.443	3.59269
284.66	4.7281
284.877	3.82788
285.095	2.59973
285.312	1.83163
285.529	1.31764
285.746	0.99548
285.964	2.24426
286.181	1.45896
286.398	2.29662
286.615	3.04819
286.832	2.99858
287.05	0.99098
287.267	1.93594
287.484	2.14368
287.701	3.36115
287.918	2.84543
288.135	2.99884
288.352	1.6031
288.569	1.79615
288.786	2.61498
289.003	2.226
289.22	3.21648
289.437	1.99699
289.654	3.32662
289.871	3.44367
290.088	3.43914
290.305	2.46595
290.522	1.91958
290.739	2.41253
290.956	3.54057
291.173	3.92219
291.39	3.78636
291.607	2.67861
291.824	2.19759
292.04	1.28376
292.257	3.25751
292.474	3.68871
292.691	2.33069
292.908	1.22337
293.125	2.0778
293.341	1.19045
293.558	5.84876
293.775	2.17496
293.992	2.27214
294.208	1.1767
294.425	1.56036
294.642	1.98177
294.858	3.27999
295.075	0.8608
295.292	2.28377
295.508	2.67766
295.725	4.15496
295.942	2.07756
296.158	1.4155
296.375	2.49891
296.591	1.81228
296.808	2.02026
297.024	2.19816
297.241	2.4245
297.458	2.66938
297.674	0.31328
297.891	2.23807
298.107	1.60222
298.323	1.28624
298.54	3.01653
298.756	1.44658
298.973	0.77637
299.189	3.16965
299.406	1.30146
299.622	3.23038
299.838	3.32845
300.055	2.973
300.271	0.80148
300.487	0.96871
300.704	1.3522
300.92	1.0313
301.136	4.49617
301.353	2.99449
301.569	2.32845
301.785	2.52864
302.001	3.18696
302.218	2.75896
302.434	2.78624
302.65	0.7184
302.866	1.83582
303.083	4.41167
303.299	4.22636
303.515	2.06619
303.731	2.49779
303.947	0.8712
304.163	1.47158
304.379	2.49954
304.595	2.86482
304.812	1.65976
305.028	1.59562
305.244	1.92838
305.46	3.12018
305.676	3.20719
305.892	3.75218
306.108	2.46742
306.324	1.76812
306.54	4.26702
306.756	2.83887
306.972	2.81791
307.187	1.96271
307.403	3.74362
307.619	1.58474
307.835	3.34407
308.051	3.73381
308.267	0.88286
308.483	3.30158
308.699	2.78888
308.914	2.40463
309.13	2.12245
309.346	0.71373
309.562	1.299
309.778	0.66193
309.993	2.70996
310.209	2.14184
310.425	0.90461
310.641	2.00237
310.856	1.14178
311.072	0.97605
311.288	1.89113
311.503	2.45054
311.719	0.49067
311.935	0.36287
312.15	2.50805
312.366	2.16042
312.581	2.66564
312.797	2.28748
313.013	2.82239
313.228	1.66471
313.444	2.28119
313.659	1.48394
313.875	2.5387
314.09	2.06694
314.306	3.47282
314.521	3.14843
314.737	2.94653
314.952	2.70489
315.168	2.18442
315.383	2.91402
315.599	1.92103
315.814	1.71084
316.029	3.12121
316.245	0.88504
316.46	0.89642
316.675	3.61126
316.891	4.25381
317.106	5.09043
317.321	3.06152
317.537	2.71824
317.752	3.09764
317.967	3.20674
318.183	1.64649
318.398	1.95645
318.613	3.40452
318.828	3.79396
319.043	2.94216
319.259	2.03635
319.474	2.60839
319.689	3.49069
319.904	0.54951
320.119	3.05619
320.334	2.53192
320.549	2.11426
320.765	3.46395
320.98	2.46128
321.195	3.25581
321.41	2.36308
321.625	3.01596
321.84	4.12973
322.055	4.34007
322.27	1.93801
322.485	1.06766
322.7	2.56673
322.915	3.55674
323.13	1.49828
323.345	3.95294
323.56	3.12116
323.775	3.12648
323.989	2.96596
324.204	2.38374
324.419	3.07593
324.634	0.93004
324.849	2.0984
325.064	4.68757
325.279	3.40534
325.493	2.99882
325.708	3.41006
325.923	1.51199
326.138	1.68384
326.352	3.99007
326.567	3.25192
326.782	1.84939
326.997	1.5626
327.211	2.88288
327.426	2.68548
327.641	1.97602
327.855	0.79064
328.07	3.10519
328.285	4.01829
328.499	1.99008
328.714	3.04634
328.928	3.09946
329.143	2.36963
329.358	3.22564
329.572	3.23596
329.787	3.72776
330.001	5.00564
330.216	0.83627
330.43	4.30311
330.645	4.09454
330.859	3.41435
331.074	1.50659
331.288	2.51857
331.503	3.88647
331.717	1.24745
331.931	2.44293
332.146	2.49395
332.36	4.1935
332.575	2.99832
332.789	2.63863
333.003	2.41986
333.218	2.96051
333.432	2.09611
333.646	3.18146
333.86	4.01531
334.075	4.17147
334.289	2.02866
334.503	1.52846
334.717	3.13346
334.932	2.97961
335.146	3.46477
335.36	2.05117
335.574	2.96986
335.788	2.84694
336.003	3.75419
336.217	3.35115
336.431	3.03907
336.645	1.77709
336.859	1.38199
337.073	2.204
337.287	2.66505
337.501	1.31757
337.715	2.76691
337.929	3.00238
338.143	1.30888
338.357	2.25809
338.571	1.48705
338.785	3.00982
338.999	1.98428
339.213	2.16251
339.427	1.07992
339.641	3.50545
339.855	2.23071
340.069	1.67435
340.283	3.40437
340.497	4.05193
340.711	2.73256
340.924	2.09136
341.138	1.39322
341.352	1.06994
341.566	2.57603
341.78	1.08627
341.993	1.91497
342.207	1.39356
342.421	2.66003
342.635	2.51602
342.848	1.82381
343.062	0.26789
343.276	1.87636
343.49	4.32944
343.703	1.7794
343.917	3.10119
344.131	3.24517
344.344	1.63963
344.558	1.81489
344.771	1.45311
344.985	3.58221
345.199	3.99859
345.412	2.42757
345.626	2.73854
345.839	0.78204
346.053	1.35399
346.266	1.38597
346.48	2.97534
346.693	2.39987
346.907	2.94163
347.12	1.60569
347.334	2.59565
347.547	2.64078
347.76	2.15862
347.974	3.23519
348.187	2.49726
348.401	2.32847
348.614	1.68982
348.827	2.10172
349.041	2.98879
349.254	0.90997
349.467	2.2457
349.681	1.38153
349.894	1.56135
350.107	3.55561
350.32	4.05386
350.534	0.79671
350.747	1.81566
350.96	1.3982
351.173	1.6188
351.386	1.99252
351.6	1.85129
351.813	1.73768
352.026	2.33325
352.239	1.26132
352.452	1.91209
352.665	2.99062
352.878	1.96999
353.092	4.22373
353.305	2.68658
353.518	2.35722
353.731	1.40546
353.944	3.37522
354.157	1.62606
354.37	1.63933
354.583	1.26383
354.796	1.07347
355.009	3.17454
355.222	2.17549
355.435	2.2644
355.647	3.19036
355.86	1.54876
356.073	2.12731
356.286	1.8406
356.499	3.03141
356.712	2.73396
356.925	2.68102
357.138	3.13713
357.35	1.36225
357.563	1.90014
357.776	2.43166
357.989	2.235
358.201	2.76276
358.414	2.46044
358.627	3.37371
358.84	2.14432
359.052	1.33177
359.265	1.53725
359.478	3.124
359.69	0.0224
359.903	2.84979
360.116	3.13423
360.328	0.94708
360.541	3.05208
360.753	1.69343
360.966	1.94135
361.179	2.09677
361.391	1.9336
361.604	1.52036
361.816	1.86583
362.029	1.91082
362.241	1.6648
362.454	2.05398
362.666	1.58037
362.879	2.52881
363.091	2.12714
363.304	1.92594
363.516	2.22884
363.728	1.48484
363.941	2.69982
364.153	2.35972
364.366	0.74276
364.578	1.46136
364.79	2.62726
365.003	2.50232
365.215	1.93563
365.427	2.92313
365.639	3.42222
365.852	2.73616
366.064	3.80666
366.276	2.0823
366.488	2.76956
366.701	2.24045
366.913	2.0731
367.125	2.38916
367.337	1.94578
367.549	2.13201
367.762	2.29775
367.974	2.48377
368.186	2.16061
368.398	3.44576
368.61	2.93145
368.822	2.91548
369.034	2.31323
369.246	3.38349
369.458	4.77345
369.67	1.8247
369.882	4.01216
370.094	0.8538
370.306	3.82406
370.518	2.34411
370.73	2.13188
370.942	2.18268
371.154	2.51361
371.366	2.54221
371.578	3.25222
371.79	2.41977
372.002	3.71702
372.214	4.35106
372.425	2.72017
372.637	4.05011
372.849	3.11884
373.061	1.04714
373.273	3.17249
373.484	3.21295
373.696	3.51543
373.908	1.16789
374.12	3.64759
374.331	3.60455
374.543	2.19974
374.755	2.13255
374.967	3.15277
375.178	3.88897
375.39	2.7875
375.602	3.14554
375.813	1.88258
376.025	2.1528
376.236	3.13126
376.448	3.31646
376.66	2.90137
376.871	2.94712
377.083	3.91105
377.294	4.56305
377.506	2.84421
377.717	4.19015
377.929	3.33222
378.14	3.00439
378.352	3.51277
378.563	3.93666
378.775	4.38196
378.986	2.58027
379.197	3.65149
379.409	2.79937
379.62	4.10643
379.832	3.67841
380.043	3.41061
380.254	3.73427
380.466	2.51918
380.677	5.71965
380.888	5.24295
381.1	5.69746
381.311	5.81114
381.522	3.9106
381.733	5.95708
381.945	3.80689
382.156	3.59674
382.367	3.65359
382.578	6.04594
382.789	6.19577
383.001	3.38267
383.212	5.25756
383.423	5.35291
383.634	4.60837
383.845	4.48144
384.056	3.60279
384.267	4.11979
384.478	4.02992
384.69	3.22826
384.901	4.59326
385.112	4.38039
385.323	5.73757
385.534	4.58194
385.745	4.8215
385.956	4.67146
386.167	3.55599
386.378	4.7176
386.588	3.85321
386.799	3.55862
387.01	3.2613
387.221	5.15241
387.432	4.56201
387.643	5.77374
387.854	4.34284
388.065	4.1969
388.275	4.46851
388.486	4.13718
388.697	4.72774
388.908	4.22562
389.119	5.48677
389.329	5.77902
389.54	4.86752
389.751	5.20868
389.962	5.83063
390.172	4.76152
390.383	4.75724
390.594	4.1963
390.804	4.23969
391.015	4.51327
391.226	5.07588
391.436	5.54338
391.647	5.42887
391.858	5.46403
392.068	3.8624
392.279	4.41326
392.489	5.35886
392.7	5.8907
392.91	4.6429
393.121	4.65921
393.331	5.66884
393.542	6.07036
393.752	5.96363
393.963	5.64536
394.173	5.63745
394.384	6.06708
394.594	5.52924
394.804	4.59212
395.015	5.49038
395.225	6.03023
395.436	4.86833
395.646	5.81875
395.856	5.18567
396.067	4.59667
396.277	6.1219
396.487	5.8311
396.697	5.92825
396.908	6.299
397.118	5.88583
397.328	5.96912
397.538	6.20799
397.749	5.41881
397.959	6.40534
398.169	6.12621
398.379	4.78029
398.589	6.00914
398.8	6.10372
399.01	6.07568
399.22	5.62878
399.43	7.42075
399.64	5.91028
399.85	6.33266
400.06	6.02502
400.27	5.4074
400.48	5.78199
400.69	6.84591
400.9	5.7358
401.11	5.24414
401.32	6.54258
401.53	5.85504
401.74	6.94526
401.95	6.43171
402.16	5.98189
402.37	6.52216
402.58	5.76158
402.79	6.43972
403	6.62065
403.209	5.42393
403.419	6.98145
403.629	5.53163
403.839	7.01489
404.049	7.01266
404.258	6.03971
404.468	6.02442
404.678	6.92967
404.888	7.25797
405.097	6.48322
405.307	6.32954
405.517	6.76563
405.727	7.00297
405.936	6.27279
406.146	6.81781
406.356	7.50688
406.565	6.41119
406.775	6.17125
406.984	6.27957
407.194	8.19194
407.404	6.61712
407.613	6.87234
407.823	7.22273
408.032	7.58588
408.242	7.23527
408.451	6.32785
408.661	6.54893
408.87	7.99198
409.08	6.13862
409.289	6.95615
409.499	6.93907
409.708	6.663
409.918	5.40286
410.127	7.04157
410.336	7.84567
410.546	7.57068
410.755	6.50681
410.964	6.58701
411.174	6.02592
411.383	7.17705
411.592	7.02582
411.802	6.25232
412.011	7.29041
412.22	6.80675
412.429	7.77462
412.639	7.98359
412.848	7.66532
413.057	8.23101
413.266	7.51005
413.475	6.90996
413.685	7.4781
413.894	7.87484
414.103	7.68181
414.312	7.44748
414.521	6.80795
414.73	7.49066
414.939	8.42426
415.148	7.33905
415.357	7.29141
415.566	7.05845
415.776	6.85457
415.985	7.04721
416.194	7.93449
416.403	8.65336
416.611	6.52591
416.82	7.18885
417.029	7.68975
417.238	7.08756
417.447	7.02647
417.656	7.46607
417.865	7.34592
418.074	7.75056
418.283	8.43527
418.492	9.49925
418.7	9.22322
418.909	10.83143
419.118	9.40436
419.327	10.08325
419.536	9.77369
419.744	10.03384
419.953	11.58708
420.162	11.56521
420.371	10.7239
420.579	11.44838
420.788	12.4213
420.997	12.61726
421.205	12.70225
421.414	12.57347
421.623	12.7791
421.831	11.94233
422.04	12.76878
422.249	11.73702
422.457	12.1938
422.666	11.27392
422.874	12.37068
423.083	12.34894
423.291	12.43445
423.5	12.43536
423.708	12.57956
423.917	13.48976
424.125	12.40585
424.334	12.49134
424.542	14.36762
424.751	13.55737
424.959	13.12569
425.167	13.49599
425.376	13.11091
425.584	11.70271
425.793	11.85946
426.001	10.52302
426.209	11.07943
426.418	9.65677
426.626	8.99835
426.834	8.68539
427.042	8.70918
427.251	8.09284
427.459	8.93591
427.667	8.47886
427.875	7.44227
428.084	8.05397
428.292	9.02373
428.5	8.70022
428.708	7.62574
428.916	7.65674
429.124	8.38609
429.333	8.08891
429.541	8.2083
429.749	8.39348
429.957	8.33931
430.165	9.93687
430.373	7.31468
430.581	8.3097
430.789	9.23944
430.997	8.30435
431.205	7.83746
431.413	8.5707
431.621	8.1204
431.829	8.7789
432.037	8.21624
432.245	8.33392
432.453	8.76461
432.661	8.59395
432.869	9.96228
433.076	8.6191
433.284	9.23926
433.492	10.06993
433.7	10.24237
433.908	9.3492
434.116	9.67174
434.323	9.37289
434.531	9.28685
434.739	9.41056
434.947	9.1974
435.154	9.42995
435.362	8.77549
435.57	8.57155
435.778	8.27836
435.985	8.8291
436.193	8.27597
436.401	9.58695
436.608	8.71242
436.816	8.49598
437.023	9.43626
437.231	9.80556
437.439	8.93411
437.646	9.09366
437.854	9.00553
438.061	9.28834
438.269	8.91315
438.476	9.46403
438.684	9.32357
438.891	9.58497
439.099	9.49884
439.306	9.45188
439.514	9.462
439.721	11.30217
439.929	10.47439
440.136	11.7411
440.343	11.87127
440.551	11.56017
440.758	13.49172
440.965	11.96373
441.173	11.547
441.38	11.28688
441.587	11.27639
441.795	10.86488
442.002	10.4418
442.209	10.4264
442.416	10.15378
442.624	9.92308
442.831	9.63718
443.038	8.83976
443.245	8.71991
443.452	8.81087
443.66	9.45373
443.867	8.99911
444.074	8.97852
444.281	9.36226
444.488	9.57024
444.695	10.18075
444.902	10.19223
445.109	11.77645
445.316	11.51428
445.523	12.08098
445.73	11.89298
445.937	13.05624
446.144	13.58756
446.351	14.25012
446.558	12.85166
446.765	14.92585
446.972	14.06366
447.179	13.63767
447.386	14.25953
447.593	12.45115
447.8	13.68198
448.007	11.85221
448.214	11.25212
448.42	10.58275
448.627	11.08901
448.834	10.07431
449.041	9.85845
449.248	9.4531
449.454	9.65413
449.661	10.38401
449.868	9.01003
450.075	8.77839
450.281	8.22963
450.488	8.46804
450.695	8.59133
450.901	8.70025
451.108	8.65355
451.315	9.70139
451.521	8.8843
451.728	9.86912
451.935	8.7756
452.141	8.89209
452.348	9.21771
452.554	9.05428
452.761	8.94473
452.967	10.2102
453.174	9.44687
453.38	9.38976
453.587	8.52987
453.793	9.3507
454	9.54496
454.206	10.45049
454.413	9.74743
454.619	9.5608
454.825	8.79281
455.032	9.51325
455.238	9.6837
455.445	8.3913
455.651	9.31106
455.857	8.04176
456.064	9.09252
456.27	9.04681
456.476	8.97298
456.682	8.41965
456.889	9.29384
457.095	9.65263
457.301	10.49019
457.507	9.41567
457.714	9.20819
457.92	9.40374
458.126	8.74324
458.332	9.27901
458.538	9.48148
458.744	10.21723
458.951	10.66859
459.157	13.06705
459.363	12.60638
459.569	12.77955
459.775	13.5243
459.981	13.36715
460.187	13.74503
460.393	13.94571
460.599	14.12479
460.805	12.90961
461.011	11.86385
461.217	11.78786
461.423	10.70132
461.629	9.82462
461.835	10.08893
462.041	9.61847
462.247	10.56129
462.453	9.44463
462.658	9.25559
462.864	9.99667
463.07	9.80159
463.276	9.6433
463.482	9.55881
463.688	10.62271
463.893	9.1372
464.099	9.38643
464.305	10.55915
464.511	9.24135
464.716	9.48399
464.922	10.1055
465.128	8.97874
465.333	10.4006
465.539	9.85673
465.745	9.65119
465.95	9.5292
466.156	11.40912
466.362	10.23138
466.567	9.6178
466.773	9.66447
466.978	10.78984
467.184	9.09154
467.389	8.58838
467.595	9.91268
467.8	9.31699
468.006	10.56054
468.211	10.33924
468.417	9.07666
468.622	9.82642
468.828	9.99706
469.033	9.90346
469.239	11.41966
469.444	9.32234
469.649	10.15899
469.855	9.77637
470.06	9.84623
470.266	9.10018
470.471	10.28802
470.676	10.07337
470.881	8.58726
471.087	10.81701
471.292	10.87168
471.497	9.02956
471.703	9.68856
471.908	9.50193
472.113	9.99793
472.318	10.50939
472.523	9.26082
472.729	10.14832
472.934	10.13664
473.139	9.83394
473.344	10.33049
473.549	10.74123
473.754	9.47819
473.959	11.30026
474.164	9.52813
474.369	9.74277
474.575	10.27281
474.78	9.81389
474.985	9.51458
475.19	8.74722
475.395	9.48307
475.6	9.77595
475.804	10.73432
476.009	10.16901
476.214	9.89054
476.419	9.71408
476.624	9.21647
476.829	9.55886
477.034	10.21848
477.239	9.73836
477.444	10.07518
477.648	10.43614
477.853	10.50532
478.058	9.76791
478.263	9.66599
478.468	9.4112
478.672	9.62511
478.877	11.02751
479.082	11.18531
479.287	10.4146
479.491	10.07263
479.696	9.60171
479.901	10.62996
480.105	10.6085
480.31	9.6586
480.515	10.30055
480.719	11.63044
480.924	10.35884
481.128	10.26153
481.333	11.48724
481.538	11.95304
481.742	12.36594
481.947	13.94179
482.151	14.99376
482.356	16.09342
482.56	18.94246
482.765	21.41157
482.969	25.34295
483.174	28.48153
483.378	32.85667
483.582	34.31766
483.787	36.57088
483.991	36.93515
484.196	37.53364
484.4	36.55612
484.604	36.47401
484.809	33.06149
485.013	31.24863
485.217	28.10671
485.422	24.9188
485.626	22.62813
485.83	21.52924
486.034	20.71608
486.239	21.27215
486.443	21.83389
486.647	22.22252
486.851	24.13516
487.055	26.01078
487.26	25.83244
487.464	27.37861
487.668	26.5611
487.872	27.50082
488.076	27.57274
488.28	26.38885
488.484	24.60731
488.688	23.76251
488.892	22.60844
489.096	20.92281
489.3	19.0972
489.504	17.95503
489.708	17.22661
489.912	16.80435
490.116	16.24281
490.32	16.1586
490.524	17.70195
490.728	18.88421
490.932	19.77356
491.136	21.33045
491.34	22.72075
491.544	23.61649
491.748	23.1569
491.951	23.12782
492.155	22.69575
492.359	21.73762
492.563	19.76526
492.767	18.64901
492.97	16.41026
493.174	14.81792
493.378	13.48831
493.582	11.85708
493.785	11.31635
493.989	11.09209
494.193	10.62992
494.396	9.86947
494.6	10.23495
494.804	9.58573
495.007	9.48623
495.211	9.91034
495.414	9.89934
495.618	10.56168
495.822	11.36541
496.025	10.92944
496.229	11.60969
496.432	11.2246
496.636	11.5955
496.839	11.86003
497.043	12.6438
497.246	12.09952
497.45	11.75597
497.653	11.94512
497.856	11.79874
498.06	11.10682
498.263	11.21746
498.467	10.90028
498.67	11.30536
498.873	10.85924
499.077	10.47761
499.28	10.60966
499.483	10.75728
499.686	10.99754
499.89	10.68276
500.093	10.9753
500.296	10.0281
500.499	11.56637
500.703	10.5425
500.906	10.73955
501.109	11.62854
501.312	10.63049
501.515	10.4578
501.719	10.94063
501.922	11.18823
502.125	10.7569
502.328	10.4759
502.531	10.07612
502.734	10.71967
502.937	9.68112
503.14	10.6676
503.343	10.10055
503.546	10.51132
503.749	10.28788
503.952	10.98089
504.155	10.1568
504.358	10.96305
504.561	10.72586
504.764	9.77289
504.967	10.76531
505.17	10.54864
505.373	11.59578
505.576	10.54141
505.778	11.06837
505.981	10.07628
506.184	11.31904
506.387	9.64669
506.59	11.75182
506.793	11.33722
506.995	10.78943
507.198	9.46425
507.401	10.93557
507.604	10.80939
507.806	10.04822
508.009	10.33742
508.212	10.94798
508.414	10.22866
508.617	10.41618
508.82	10.66378
509.022	11.58639
509.225	11.06056
509.427	10.0625
509.63	11.35954
509.833	10.67654
510.035	10.29363
510.238	10.03463
510.44	11.48554
510.643	9.84032
510.845	11.9706
511.048	10.96819
511.25	10.40133
511.453	10.7344
511.655	10.91105
511.858	10.39097
512.06	11.30405
512.262	10.95749
512.465	11.31494
512.667	10.79294
512.869	10.15842
513.072	11.06391
513.274	11.03948
513.476	11.21768
513.679	11.214
513.881	10.27917
514.083	11.7645
514.286	10.43705
514.488	10.40167
514.69	10.24844
514.892	10.03562
515.094	11.39439
515.297	10.49219
515.499	11.0891
515.701	10.44899
515.903	11.96784
516.105	11.93964
516.307	11.3115
516.509	9.79367
516.711	10.19607
516.913	10.79998
517.116	10.87817
517.318	10.63268
517.52	11.47844
517.722	11.91644
517.924	11.56349
518.126	12.89121
518.328	12.66917
518.529	13.33578
518.731	14.242
518.933	12.62408
519.135	12.69741
519.337	13.40087
519.539	12.55864
519.741	10.73368
519.943	10.87787
520.145	10.67042
520.346	11.53471
520.548	10.8553
520.75	11.20627
520.952	10.60319
521.153	11.23801
521.355	11.09831
521.557	10.37462
521.759	10.9159
521.96	10.84009
522.162	10.41302
522.364	11.65822
522.565	10.51853
522.767	11.32832
522.969	11.65129
523.17	11.3401
523.372	10.92627
523.573	10.69844
523.775	10.91676
523.977	10.20242
524.178	11.90718
524.38	10.53039
524.581	11.51161
524.783	11.35348
524.984	12.80941
525.186	12.99604
525.387	13.85612
525.589	13.83013
525.79	13.87538
525.991	13.80116
526.193	14.80809
526.394	13.87192
526.596	15.15119
526.797	15.73173
526.998	15.3831
527.2	16.18855
527.401	18.9022
527.602	20.67519
527.803	24.00757
528.005	25.93069
528.206	27.51101
528.407	29.25338
528.608	29.33018
528.81	29.71946
529.011	28.68023
529.212	29.62985
529.413	27.43932
529.614	25.58687
529.815	24.09728
530.017	21.82273
530.218	19.23306
530.419	17.07481
530.62	16.44028
530.821	15.65428
531.022	13.86812
531.223	14.6773
531.424	14.54309
531.625	14.88835
531.826	14.68852
532.027	15.64466
532.228	17.40135
532.429	17.66422
532.63	18.42457
532.831	19.67153
533.032	19.79292
533.233	21.038
533.433	20.63084
533.634	20.52827
533.835	19.67416
534.036	18.62794
534.237	17.85845
534.438	16.45572
534.638	14.44748
534.839	14.03692
535.04	13.55204
535.241	12.74303
535.441	14.30142
535.642	13.6528
535.843	12.93331
536.043	13.69543
536.244	13.81228
536.445	13.97838
536.645	15.21966
536.846	14.89709
537.047	15.08977
537.247	13.55787
537.448	13.45581
537.648	13.16004
537.849	12.09154
538.049	11.53047
538.25	11.65449
538.451	11.77029
538.651	10.87587
538.851	11.66273
539.052	12.17351
539.252	11.83778
539.453	11.21514
539.653	11.80341
539.854	12.41111
540.054	13.79566
540.254	15.96165
540.455	17.83338
540.655	18.07025
540.855	20.24534
541.056	22.0111
541.256	21.62395
541.456	23.08617
541.657	22.22394
541.857	23.19599
542.057	21.12827
542.257	20.18097
542.458	20.13469
542.658	19.10847
542.858	16.83503
543.058	16.87247
543.258	15.68575
543.458	13.83823
543.659	13.34433
543.859	13.95453
544.059	13.54626
544.259	12.3576
544.459	12.61119
544.659	11.56314
544.859	11.8837
545.059	11.16852
545.259	11.98473
545.459	11.37287
545.659	12.23278
545.859	11.70294
546.059	12.06357
546.259	11.47765
546.459	11.43596
546.659	11.43903
546.859	12.3789
547.059	11.81377
547.258	11.8308
547.458	11.83674
547.658	10.99727
547.858	10.83282
548.058	11.8141
548.258	11.41271
548.457	10.90454
548.657	12.8147
548.857	11.12627
549.057	11.93182
549.256	11.87049
549.456	11.0114
549.656	9.83769
549.855	12.47894
550.055	11.25375
550.255	12.68037
550.454	11.7045
550.654	11.87243
550.853	12.3428
551.053	11.87799
551.253	11.51689
551.452	11.6531
551.652	10.81998
551.851	10.67769
552.051	11.01955
552.25	10.93006
552.45	10.93222
552.649	11.27663
552.849	10.81517
553.048	11.3581
553.248	11.63369
553.447	10.74729
553.646	11.89471
553.846	12.67084
554.045	12.03871
554.244	10.42335
554.444	12.59352
554.643	10.89893
554.842	12.52541
555.042	12.91921
555.241	10.65752
555.44	10.54652
555.64	12.06408
555.839	12.86845
556.038	11.74184
556.237	10.74065
556.436	11.39121
556.636	11.77683
556.835	10.66849
557.034	12.52981
557.233	11.21375
557.432	10.14867
557.631	12.36159
557.83	11.34407
558.029	11.07204
558.228	10.72995
558.427	10.45882
558.626	11.61076
558.825	10.54668
559.024	11.38744
559.223	12.7974
559.422	11.09542
559.621	11.68937
559.82	9.43473
560.019	11.28359
560.218	11.06644
560.417	9.09376
560.616	10.82119
560.815	14.12211
561.014	10.21063
561.212	12.77751
561.411	11.37311
561.61	10.0699
561.809	10.99945
562.008	12.23133
562.206	11.22182
562.405	11.82753
562.604	10.92002
562.803	11.62366
563.001	10.83393
563.2	10.2037
563.399	11.83321
563.597	10.40852
563.796	11.03404
563.995	10.35975
564.193	11.79162
564.392	11.10764
564.59	13.02776
564.789	9.98423
564.988	10.60763
565.186	11.30793
565.385	11.22853
565.583	11.05906
565.782	11.21253
565.98	11.14131
566.179	11.30309
566.377	10.40768
566.575	10.78964
566.774	12.34613
566.972	12.03745
567.171	12.77622
567.369	12.25498
567.567	11.45986
567.766	11.55269
567.964	9.88324
568.162	11.63403
568.361	12.19981
568.559	11.18385
568.757	11.71306
568.956	11.636
569.154	11.32069
569.352	11.73821
569.55	11.16466
569.748	11.2887
569.947	10.66924
570.145	10.5281
570.343	10.54795
570.541	12.01545
570.739	10.3328
570.937	11.24412
571.135	11.62715
571.333	12.7686
571.532	12.67626
571.73	11.48322
571.928	12.22453
572.126	11.53412
572.324	10.97803
572.522	12.48018
572.72	13.69339
572.918	11.48889
573.116	11.91959
573.313	11.51733
573.511	11.53103
573.709	10.90768
573.907	12.02672
574.105	11.20066
574.303	10.17455
574.501	10.05502
574.699	11.71699
574.896	11.75573
575.094	12.07425
575.292	10.21332
575.49	12.13956
575.688	11.18686
575.885	12.5607
576.083	13.20492
576.281	11.77131
576.478	10.77238
576.676	11.79108
576.874	10.19981
577.071	11.1731
577.269	13.3901
577.467	11.44979
577.664	11.23887
577.862	12.3284
578.059	10.4467
578.257	12.05496
578.455	10.88782
578.652	11.70316
578.85	9.53561
579.047	11.27023
579.245	11.24239
579.442	11.0367
579.64	11.28665
579.837	9.74322
580.034	13.8153
580.232	11.20188
580.429	10.08983
580.627	11.56859
580.824	12.56158
581.021	11.41387
581.219	10.7928
581.416	10.39434
581.613	12.56743
581.811	12.78023
582.008	10.47052
582.205	12.10824
582.402	11.45442
582.6	13.3885
582.797	11.27975
582.994	11.49193
583.191	11.94178
583.388	11.05134
583.586	11.99067
583.783	12.18069
583.98	10.78864
584.177	11.62994
584.374	8.34509
584.571	11.01453
584.768	11.21955
584.965	10.58636
585.162	11.86461
585.359	12.92057
585.556	11.26735
585.753	11.52966
585.95	9.69133
586.147	10.28268
586.344	11.72583
586.541	10.8684
586.738	9.81467
586.935	10.99504
587.132	10.37959
587.329	12.34451
587.526	11.40499
587.722	16.19595
587.919	9.916
588.116	11.5539
588.313	12.86307
588.51	13.6822
588.706	10.87141
588.903	11.8434
589.1	12.07938
589.297	13.70342
589.493	11.45501
589.69	11.88804
589.887	10.83624
590.083	10.29402
590.28	10.87625
590.477	12.06362
590.673	12.4282
590.87	12.82638
591.067	11.02065
591.263	11.93773
591.46	11.5526
591.656	10.83126
591.853	12.34873
592.049	10.60203
592.246	10.49743
592.442	12.65686
592.639	12.55428
592.835	10.32791
593.032	12.00107
593.228	9.8486
593.425	9.65987
593.621	9.91348
593.817	11.74198
594.014	10.51119
594.21	11.06198
594.406	12.22347
594.603	12.15425
594.799	10.71155
594.995	9.02805
595.192	12.6782
595.388	11.04937
595.584	11.09247
595.78	10.0235
595.977	13.75324
596.173	13.22696
596.369	11.10592
596.565	10.34625
596.761	10.10674
596.957	12.7694
597.154	10.74097
597.35	11.06406
597.546	10.72668
597.742	12.23237
597.938	11.61565
598.134	10.84818
598.33	11.67539
598.526	12.83848
598.722	11.74706
598.918	13.09088
599.114	11.91963
599.31	10.05219
599.506	11.04075
599.702	10.35851
599.898	11.21366
600.094	12.03208
600.29	11.99855
600.485	12.46806
600.681	11.01485
600.877	13.23744
601.073	11.4331
601.269	13.1819
601.465	12.68125
601.66	10.47155
601.856	9.15798
602.052	13.14806
602.248	10.95544
602.443	9.55465
602.639	10.1932
602.835	10.78769
603.03	10.43462
603.226	12.29694
603.422	10.21317
603.617	10.95902
603.813	11.01845
604.009	11.06706
604.204	12.54711
604.4	10.14787
604.595	12.46709
604.791	10.44965
604.986	11.74338
605.182	10.88571
605.377	11.19904
605.573	10.96146
605.768	11.64989
605.964	12.2398
606.159	12.09153
606.355	12.78045
606.55	10.77873
606.746	12.99114
606.941	11.1198
607.136	13.82435
607.332	14.9031
607.527	10.05515
607.722	11.44771
607.918	11.18451
608.113	10.85677
608.308	12.21776
608.503	12.08701
608.699	11.82696
608.894	12.20952
609.089	10.6087
609.284	11.86979
609.479	10.94525
609.675	12.24058
609.87	10.93519
610.065	12.56637
610.26	12.51729
610.455	12.27802
610.65	11.56031
610.845	11.45767
611.04	12.62065
611.235	11.30611
611.43	11.05586
611.625	9.84274
611.82	13.27941
612.015	10.45764
612.21	13.0828
612.405	9.70615
612.6	13.48606
612.795	12.76808
612.99	12.02092
613.185	10.18622
613.38	10.52538
613.575	11.49801
613.77	14.96208
613.965	9.58576
614.159	10.28549
614.354	13.24061
614.549	12.50802
614.744	12.33474
614.938	10.23343
615.133	9.57807
615.328	13.35057
615.523	11.81014
615.717	15.41195
615.912	10.09852
616.107	11.47332
616.301	10.98519
616.496	10.93122
616.691	13.62301
616.885	12.84254
617.08	15.82878
617.274	12.88686
617.469	14.29144
617.664	12.50506
617.858	11.0299
618.053	12.30904
618.247	11.02999
618.442	8.5791
618.636	13.50011
618.831	10.35186
619.025	10.65811
619.219	15.0832
619.414	7.34572
619.608	11.38363
619.803	11.06438
619.997	14.68444
620.191	12.83385
620.386	12.19684
620.58	11.58784
620.774	8.97814
620.969	9.35441
621.163	11.60784
621.357	10.22899
621.551	11.08826
621.746	11.7781
621.94	11.20836
622.134	16.11817
622.328	15.03702
622.522	9.44754
622.716	12.73288
622.911	13.50176
623.105	12.92805
623.299	12.11937
623.493	16.19669
623.687	10.34679
623.881	11.04491
624.075	11.95823
624.269	13.70293
624.463	9.11803
624.657	9.56126
624.851	12.27617
625.045	13.04187
625.239	13.00043
625.433	11.3502
625.627	13.44233
625.821	10.65814
626.015	10.69547
626.209	11.98068
626.403	9.97133
626.596	12.23896
626.79	12.80714
626.984	10.29386
627.178	12.08853
627.372	12.7644
627.565	12.86726
627.759	9.57901
627.953	10.21798
628.147	12.38757
628.34	12.39133
628.534	14.46575
628.728	11.4994
628.921	12.48411
629.115	12.45478
629.309	13.15038
629.502	13.09627
629.696	11.78643
629.89	11.5272
630.083	12.38474
630.277	12.30181
630.47	14.5209
630.664	11.58566
630.857	9.75123
631.051	12.71477
631.244	13.94947
631.438	12.91746
631.631	10.49063
631.825	14.23936
632.018	13.07204
632.212	14.56532
632.405	13.65823
632.598	10.88623
632.792	11.78207
632.985	8.2281
633.178	11.54276
633.372	11.55024
633.565	11.48174
633.758	14.16104
633.952	10.30419
634.145	10.36356
634.338	11.91737
634.531	10.88085
634.724	10.90907
634.918	12.06408
635.111	11.25331
635.304	11.40635
635.497	15.60343
635.69	12.38603
635.883	13.73806
636.077	10.5979
636.27	12.7568
636.463	11.8658
636.656	12.29812
636.849	11.46286
637.042	13.22828
637.235	14.53089
637.428	12.93206
637.621	13.43254
637.814	14.44181
638.007	14.2597
638.2	14.22674
638.393	15.01867
638.586	10.11908
638.778	11.69543
638.971	11.84237
639.164	15.67226
639.357	12.9483
639.55	14.70161
639.743	13.54364
639.935	12.9572
640.128	15.66874
640.321	13.44138
640.514	12.37295
640.707	16.70683
640.899	13.11503
641.092	9.37652
641.285	25.28557
641.477	8.24358
641.67	16.99084
641.863	14.86206
642.055	12.97524
642.248	12.19023
642.441	11.61733
642.633	13.45225
642.826	14.63712
643.018	15.43704
643.211	16.59461
643.403	15.46245
643.596	16.85043
643.788	16.96428
643.981	12.11157
644.173	14.49572
644.366	12.57896
644.558	9.39803
644.751	14.80566
644.943	9.63265
645.135	15.69458
645.328	16.26828
645.52	13.34363
645.712	14.88026
645.905	19.08583
646.097	10.37706
646.289	12.09284
646.482	17.18903
646.674	11.60478
646.866	15.57653
647.058	14.11607
647.251	10.62765
647.443	11.60315
647.635	12.44051
647.827	10.78453
648.019	11.44934
648.211	12.41284
648.404	12.42134
648.596	16.15844
648.788	13.32364
648.98	13.39495
649.172	13.77548
649.364	13.83502
649.556	9.48111
649.748	18.28538
649.94	11.29643
650.132	13.65452
650.324	10.75705
650.516	11.99055
650.708	15.60165
650.9	10.22596
651.092	11.8356
651.284	10.198
651.476	10.65186
651.667	13.92715
651.859	15.75602
652.051	12.50578
652.243	12.74691
652.435	11.41633
652.627	13.99203
652.818	14.19536
653.01	9.87319
653.202	10.4789
653.394	11.98191
653.585	13.66049
653.777	22.85677
653.969	15.25235
654.16	15.69803
654.352	11.15903
654.544	11.83927
654.735	14.82908
654.927	13.73959
655.118	16.35776
655.31	14.80517
655.502	16.04162
655.693	12.48284
655.885	14.8853
656.076	15.59343
656.268	13.89605
656.459	17.02462
656.651	16.12091
656.842	12.10238
657.034	11.84125
657.225	15.16311
657.416	16.25284
657.608	15.87682
657.799	13.48806
657.99	15.94581
658.182	12.51858
658.373	12.09904
658.564	15.11649
658.756	13.6527
658.947	12.99445
659.138	11.23712
659.33	12.30493
659.521	11.8375
659.712	13.14666
659.903	12.87759
660.094	12.28438
660.286	10.62436
660.477	17.4441
660.668	14.57703
660.859	12.60905
661.05	10.68062
661.241	14.81007
661.432	14.55089
661.623	12.61343
661.814	12.15974
662.006	9.96411
662.197	13.71752
662.388	16.03284
662.579	13.9736
662.77	16.00116
662.96	20.20512
663.151	15.09542
663.342	9.93123
663.533	14.91275
663.724	13.9866
663.915	17.62789
664.106	13.13018
664.297	17.73388
664.488	15.80925
664.678	12.23647
664.869	15.59741
665.06	15.94945
665.251	14.13973
665.442	14.63221
665.632	11.07558
665.823	18.36091
666.014	7.07287
666.204	15.83962
666.395	16.95338
666.586	21.29703
666.776	15.88209
666.967	18.65217
667.158	14.11427
667.348	17.25987
667.539	11.57924
667.729	16.39382
667.92	12.42946
668.111	16.52284
668.301	15.91224
668.492	13.51998
668.682	14.15169
668.873	14.28962
669.063	11.17344
669.253	15.08434
669.444	15.9617
669.634	13.68196
669.825	19.14466
670.015	17.07668
670.206	11.77484
670.396	18.75143
670.586	13.61679
670.777	15.03091
670.967	9.32161
671.157	13.17818
671.347	12.38733
671.538	18.01908
671.728	15.61096
671.918	19.5531
672.108	16.25532
672.299	13.4516
672.489	15.8137
672.679	13.53531
672.869	15.58887
673.059	19.70728
673.249	15.32626
673.44	11.5847
673.63	14.36106
673.82	17.4554
674.01	12.45812
674.2	16.10885
674.39	22.48174
674.58	17.20712
674.77	14.69148
674.96	14.56159
675.15	25.95985
675.34	19.08118
675.53	15.10751
675.72	14.43537
675.91	10.63611
676.099	20.51208
676.289	21.27936
676.479	17.8852
676.669	13.32065
676.859	15.92819
677.049	12.19082
677.238	15.6054
677.428	20.4839
677.618	16.7951
677.808	18.12242
677.997	16.89225
678.187	11.92744
678.377	14.68575
678.567	13.56165
678.756	13.44163
678.946	14.50531
679.136	10.61661
679.325	12.91418
679.515	12.3214
679.704	11.40965
679.894	16.65756
680.084	15.70557
680.273	17.54659
680.463	12.89211
680.652	12.7719
680.842	14.59226
681.031	17.45102
681.221	12.59574
681.41	16.58372
681.6	14.69286
681.789	16.97134
681.978	18.66777
682.168	15.70655
682.357	15.31222
682.547	17.26131
682.736	15.28443
682.925	18.13782
683.115	18.33005
683.304	18.15085
683.493	16.5945
683.682	15.72464
683.872	17.08335
684.061	19.24868
684.25	17.5663
684.439	20.95755
684.629	17.91732
684.818	25.81391
685.007	15.63628
685.196	14.7336
685.385	20.81151
685.574	16.77332
685.763	17.62178
685.952	17.88701
686.142	12.68009
686.331	20.95274
686.52	10.68885
686.709	21.15799
686.898	20.77772
687.087	18.69001
687.276	21.53772
687.465	19.65457
687.654	15.99341
687.842	21.48009
688.031	13.15369
688.22	20.80179
688.409	17.05397
688.598	17.16401
688.787	24.97828
688.976	17.58285
689.165	22.48368
689.353	15.55228
689.542	18.75547
689.731	19.02656
689.92	24.34054
690.108	19.21303
690.297	15.80898
690.486	17.39764
690.675	20.58498
690.863	23.76273
691.052	22.51281
691.241	17.63221
691.429	17.66511
691.618	22.76354
691.806	13.69079
691.995	15.87678
692.184	16.83584
692.372	15.86051
692.561	18.03438
692.749	16.99289
692.938	26.09804
693.126	19.66927
693.315	17.52801
693.503	20.04719
693.692	19.66265
693.88	21.72571
694.068	25.64106
694.257	17.80315
694.445	18.48534
694.634	10.11791
694.822	21.47453
695.01	22.85687
695.199	22.84663
695.387	23.39641
695.575	22.02242
695.763	17.4296
695.952	15.99933
696.14	13.13217
696.328	16.74316
696.516	18.24724
696.705	18.77969
696.893	19.01603
697.081	12.0905
697.269	20.21007
697.457	14.49792
697.645	13.76544
697.833	20.2725
698.021	15.17247
698.21	16.35117
698.398	17.44696
698.586	14.13132
698.774	14.30624
698.962	16.08603
699.15	14.32629
699.338	12.88008
699.526	19.02622
699.714	15.17412
699.901	15.58171
700.089	20.77473
700.277	15.21145
700.465	16.87125
700.653	20.507
700.841	18.87082
701.029	15.6892
701.217	21.96331
701.404	18.61299
701.592	22.77316
701.78	24.89785
701.968	16.91136
702.155	17.39334
702.343	12.28004
702.531	22.52344
702.718	19.36967
702.906	18.17424
703.094	16.6061
703.281	23.67522
703.469	19.29195
703.657	23.18324
703.844	30.34667
704.032	25.57342
704.219	16.73115
704.407	20.75443
704.595	24.75314
704.782	19.22926
704.97	17.70052
705.157	17.839
705.345	24.12092
705.532	29.32402
705.719	21.48876
705.907	25.0938
706.094	19.54667
706.282	26.52056
706.469	17.92039
706.656	20.02154
706.844	18.72528
707.031	23.23815
707.218	20.09965
707.406	26.04614
707.593	22.79778
707.78	21.9016
707.968	18.86747
708.155	16.49032
708.342	22.21467
708.529	21.73457
708.716	20.61296
708.904	27.11423
709.091	23.26727
709.278	15.07883
709.465	28.54847
709.652	27.76625
709.839	26.10601
710.026	21.13294
710.213	14.04057
710.4	22.64172
710.587	25.27494
710.774	26.29567
710.961	25.53611
711.148	20.64724
711.335	25.68284
711.522	19.88755
711.709	22.59413
711.896	30.25003
712.083	24.51429
712.27	17.91138
712.457	22.39236
712.644	15.13023
712.831	29.51043
713.017	21.36092
713.204	24.97492
713.391	19.27476
713.578	26.57989
713.765	27.34352
713.951	24.30718
714.138	35.80153
714.325	25.334
714.512	22.02287
714.698	17.66255
714.885	28.54416
715.072	23.00406
715.258	22.95552
715.445	19.38833
715.631	29.11039
715.818	11.28945
716.005	18.96289
716.191	25.12353
716.378	20.92763
716.564	26.24744
716.751	18.64865
716.937	20.16114
717.124	27.77019
717.31	19.76337
717.497	29.94142
717.683	19.83144
717.869	33.21793
718.056	20.91726
718.242	24.98839
718.429	21.47684
718.615	16.15344
718.801	23.63767
718.988	27.41743
719.174	25.19462
719.36	22.26433
719.547	27.4955
719.733	26.01676
719.919	24.77192
720.105	25.88272
720.291	23.38187
720.478	24.44496
720.664	22.07875
720.85	22.38035
721.036	38.3112
721.222	31.53888
721.408	23.53824
721.595	34.6208
721.781	32.99587
721.967	30.09438
722.153	32.66716
722.339	27.41376
722.525	26.83631
722.711	19.84376
722.897	16.86167
723.083	21.17571
723.269	31.11986
723.455	37.63406
723.641	40.41332
723.827	25.13981
724.012	28.54671
724.198	21.93921
724.384	32.30024
724.57	27.29779
724.756	15.17802
724.942	12.83534
725.127	30.07915
725.313	32.10889
725.499	32.28605
725.685	36.12385
725.87	26.14964
726.056	20.09316
726.242	33.19955
726.428	16.5673
726.613	30.81465
726.799	22.61723
726.985	20.21301
727.17	16.04351
727.356	34.72031
727.541	18.7495
727.727	24.203
727.913	29.61437
728.098	21.9902
728.284	29.81092
728.469	18.24188
728.655	19.96995
728.84	30.08005
729.026	30.58118
729.211	29.10531
729.397	28.19347
729.582	29.25745
729.767	24.67819
729.953	27.26599
730.138	30.96829
730.323	14.30901
730.509	20.36899
730.694	35.49193
730.879	29.13864
731.065	25.98787
731.25	38.26133
731.435	29.69165
731.621	16.89657
731.806	23.2191
731.991	27.4783
732.176	17.97162
732.361	33.99298
732.547	28.82069
732.732	17.32708
732.917	39.451
733.102	18.2858
733.287	20.17628
733.472	25.95887
733.657	26.16846
733.842	17.46201
734.027	22.39364
734.212	24.89273
734.397	21.27254
734.582	25.95732
734.767	30.57103
734.952	34.00548
735.137	11.26891
735.322	35.50855
735.507	26.93779
735.692	27.52476
735.877	39.61697
736.062	38.18317
736.247	28.4225
736.431	25.79841
736.616	34.00308
736.801	28.91126
736.986	26.87961
737.171	20.41546
737.355	18.271
737.54	33.53182
737.725	27.09296
737.909	43.88244
738.094	22.95326
738.279	32.94326
738.463	25.90728
738.648	30.92287
738.833	29.53801
739.017	38.88042
739.202	25.78098
739.386	24.19578
739.571	19.67018
739.756	32.55466
739.94	26.33575
740.125	32.18095
740.309	21.58037
740.494	32.97411
740.678	26.83717
740.863	30.1184
741.047	28.69691
741.231	36.03218
741.416	22.29455
741.6	38.45647
741.785	21.24893
741.969	34.52403
742.153	34.73528
742.338	14.43223
742.522	27.16981
742.706	32.87996
742.89	18.70318
743.075	28.39244
743.259	37.11377
743.443	34.35821
743.627	36.77613
743.812	43.86189
743.996	10.70361
744.18	26.54401
744.364	23.02437
744.548	46.1697
744.732	27.17798
744.916	34.61973
745.1	32.80434
745.285	27.02081
745.469	32.39578
745.653	39.64269
745.837	16.647
746.021	44.74985
746.205	40.48839
746.389	28.85446
746.573	27.1079
746.757	42.27158
746.94	26.37261
747.124	38.24128
747.308	20.275
747.492	36.62
747.676	23.11608
747.86	46.90875
748.044	26.842
748.227	17.12303
748.411	56.65587
748.595	29.30837
748.779	21.74775
748.963	31.59957
749.146	30.23863
749.33	22.7955
749.514	20.59593
749.697	35.9791
749.881	22.3079
750.065	21.90921
750.248	31.6978
750.432	48.83462
750.616	30.36397
750.799	17.55039
750.983	46.77623
751.166	50.49304
751.35	16.55657
751.533	32.59086
751.717	37.35133
751.9	40.44937
752.084	24.0089
752.267	19.69978
752.451	23.82515
752.634	30.34213
752.818	32.02575
753.001	35.33348
753.184	37.68954
753.368	32.31461
753.551	5.2356
753.734	22.40339
753.918	46.27932
754.101	22.72773
754.284	34.19072
754.467	25.05019
754.651	25.62372
754.834	23.87323
755.017	39.82683
755.2	38.47509
755.384	20.56567
755.567	36.35731
755.75	39.10316
755.933	27.09252
756.116	30.61818
756.299	25.48362
756.482	21.8318
756.665	33.11689
756.848	31.37304
757.032	31.64262
757.215	17.47271
757.398	20.84388
757.581	22.32
757.764	53.82545
757.947	28.55478
758.129	38.27444
758.312	4.29393
758.495	26.6356
758.678	28.16742
758.861	26.00103
759.044	44.08207
759.227	23.64516
759.41	22.43302
759.592	36.17837
759.775	29.5928
759.958	37.98669
760.141	18.70771
760.324	48.26692
760.506	42.8075
760.689	35.46622
760.872	51.13246
761.054	33.61068
761.237	27.07888
761.42	33.32386
761.602	38.08957
761.785	33.31173
761.968	39.23789
762.15	44.82691
762.333	28.18041
762.515	32.67049
762.698	25.4054
762.88	36.52161
763.063	31.25527
763.245	36.13912
763.428	22.44646
763.61	22.71508
763.793	19.95046
763.975	31.31303
764.158	25.66607
764.34	24.91188
764.522	21.63786
764.705	28.91334
764.887	39.09619
765.069	18.60505
765.252	34.42911
765.434	35.65967
765.616	29.78678
765.799	24.85413
765.981	34.78444
766.163	22.48776
766.345	37.79329
766.528	23.05459
766.71	9.8998
766.892	30.00815
767.074	38.52658
767.256	29.03934
767.438	44.95028
767.62	32.27535
767.802	48.67097
767.985	37.21195
768.167	47.79617
768.349	25.74835
768.531	35.17027
768.713	31.64257
768.895	38.12976
769.077	34.02628
769.259	57.5123
769.441	79.53036
769.623	40.94953
769.804	50.20091
769.986	48.86432
770.168	56.97061
770.35	67.90441
770.532	48.48196
770.714	55.53941
770.896	59.66273
771.077	22.09312
771.259	61.76257
771.441	49.13431
771.623	63.38915
771.804	80.61419
771.986	17.68737
772.168	37.01764
772.35	62.23055
772.531	81.88557
772.713	50.5826
772.894	62.19466
773.076	46.32276
773.258	36.63637
773.439	64.19991
773.621	70.57379
773.802	33.42844
773.984	41.52468
774.166	46.51707
774.347	71.62383
774.529	58.35686
774.71	19.71977
774.891	44.54464
775.073	40.74702
775.254	67.43078
775.436	37.3584
775.617	75.16231
775.799	37.4892
775.98	70.64361
776.161	77.26135
776.343	71.45983
776.524	45.7151
776.705	41.61954
776.886	19.09276
777.068	49.39348
777.249	86.81022
777.43	79.5312
777.611	32.23681
777.793	47.51336
777.974	74.42944
778.155	41.55849
778.336	34.10113
778.517	80.33417
778.698	39.90694
778.879	18.86494
779.061	7.29637
779.242	54.7428
779.423	55.05352
779.604	40.49666
779.785	43.23875
779.966	53.83283
780.147	60.73222
780.328	65.61697
780.509	88.98476
780.69	59.12778
780.871	39.09823
781.051	22.42601
781.232	53.10037
781.413	51.13096
781.594	41.53879
781.775	40.99317
781.956	37.75646
782.137	18.16176
782.317	36.6793
782.498	53.41959
782.679	49.64872
782.86	49.27347
783.04	34.76168
783.221	48.99173
783.402	83.80472
783.583	47.24016
783.763	61.03085
783.944	38.6456
784.124	25.56265
784.305	79.52832
784.486	55.34714
784.666	47.20504
784.847	23.79819
785.027	92.81725
785.208	37.43275
785.388	38.54476
785.569	37.75882
785.749	43.54271
785.93	39.85585
786.11	24.37541
786.291	54.44963
786.471	47.42417
786.652	60.07376
786.832	46.08653
787.012	53.63328
787.193	29.52465
787.373	46.80136
787.553	42.12379
787.734	50.32713
787.914	41.61487
788.094	56.20137
788.275	54.3983
788.455	39.68278
788.635	28.73716
788.815	50.76922
788.995	30.59533
789.176	24.68803
789.356	32.52625
789.536	42.38133
789.716	53.87117
789.896	31.43051
790.076	39.94408
790.256	50.10187
790.436	13.98386
790.616	33.0988
790.796	52.99907
790.976	40.1024
791.156	34.75024
791.336	58.52319
791.516	49.95606
791.696	43.769
791.876	28.08118
792.056	48.9122
792.236	60.71939
792.416	59.10159
792.596	56.33203
792.776	55.25358
792.956	56.52273
793.135	71.93209
793.315	24.53991
793.495	70.38829
793.675	54.27565
793.854	62.19633
794.034	64.12397
794.214	32.21727
794.394	60.90684
794.573	64.84858
794.753	46.14605
794.933	32.21716
795.112	49.56018
795.292	58.64584
795.472	77.35505
795.651	25.70579
795.831	46.46938
796.01	43.47265
796.19	45.9153
796.369	42.6767
796.549	51.62133
796.728	41.37902
796.908	28.23596
797.087	28.86547
797.267	42.24312
797.446	30.52832
797.626	51.52896
797.805	51.55031
797.984	35.87807
798.164	56.23105
798.343	32.34355
798.522	50.86667
798.702	51.5286
798.881	26.85135
799.06	41.3698
799.239	17.95488
799.419	29.55245
799.598	72.05589
799.777	55.52203
799.956	66.34264
800.136	40.1798
800.315	35.18736
800.494	52.68324
800.673	62.5063
800.852	56.46267
801.031	65.31386
801.21	54.12994
801.389	39.46167
801.568	48.1252
801.747	79.2002
801.926	46.38957
802.105	70.28172
802.284	42.78114
802.463	72.68596
802.642	49.74089
802.821	51.4766
803	67.65479
803.179	60.10052
803.358	67.5473
803.537	37.72722
803.716	54.11455
803.895	38.02844
804.073	46.54211
804.252	35.12795
804.431	53.56939
804.61	47.55946
804.789	66.55817
804.967	38.01505
805.146	42.09293
805.325	86.19164
805.503	57.67483
805.682	25.10462
805.861	92.45075
806.039	70.14513
806.218	37.9036
806.397	48.47828
806.575	48.85957
806.754	53.01135
806.932	32.43354
807.111	77.65694
807.289	64.0005
807.468	48.2228
807.646	62.56219
807.825	55.95432
808.003	47.98995
808.182	61.71418
808.36	52.83518
808.539	33.4975
808.717	75.35361
808.895	36.12078
809.074	55.34228
809.252	48.90434
809.43	64.21983
809.609	74.70126
809.787	86.51156
809.965	49.63265
810.144	51.19785
810.322	47.56661
810.5	62.16388
810.678	46.02904
810.856	90.10104
811.035	69.67174
811.213	66.44697
811.391	67.08384
811.569	54.15506
811.747	113.43825
811.925	68.3431
812.103	40.21456
812.281	46.02012
812.459	91.54781
812.637	92.23654
812.816	72.57139
812.994	90.14853
813.171	74.9593
813.349	66.26698
813.527	77.83756
813.705	73.9311
813.883	98.21503
814.061	73.13648
814.239	89.18348
814.417	102.21192
814.595	62.62665
814.773	61.66118
814.95	59.4617
815.128	65.57013
815.306	55.35563
815.484	53.4677
815.662	40.72004
815.839	30.57894
816.017	47.73584
816.195	77.4966
816.372	50.60513
816.55	73.02588
816.728	89.36848
816.905	51.52136
817.083	84.32481
817.261	58.64805
817.438	100.97346
817.616	91.19773
817.793	43.71092
817.971	69.19187
818.148	62.56491
818.326	79.31589
818.503	64.01382
818.681	77.24709
818.858	43.70308
819.036	55.8133
819.213	57.39028
819.391	45.41744
819.568	40.50712
819.745	35.53937
819.923	64.15684
820.1	41.87151
820.277	38.06525
820.455	44.60895
820.632	46.24628
820.809	48.92628
820.986	30.95825
821.164	25.49334
821.341	23.38473
821.518	31.21909
821.695	25.60673
821.872	24.40857
822.05	21.62074
822.227	17.93984
822.404	19.40651
822.581	21.20914
822.758	19.18543
822.935	19.40811
823.112	21.67811
823.289	18.62441
823.466	21.60251
823.643	20.5465
823.82	23.72578
823.997	21.74812
824.174	25.30232
824.351	31.5492
824.528	29.58842
824.705	27.29499
824.882	30.75829
825.059	38.81997
825.236	28.16192
825.412	27.14617
825.589	34.4668
825.766	49.05395
825.943	29.10416
826.12	35.27719
826.296	25.12077
826.473	31.02181
826.65	31.36482
826.827	40.16775
827.003	26.03849
827.18	29.20042
827.357	33.30019
827.533	28.81313
827.71	17.07073
827.887	25.55937
828.063	29.54821
828.24	25.47818
828.416	34.42432
828.593	27.68735
828.769	38.92274
828.946	43.48747
829.122	45.54811
829.299	42.25466
829.475	20.49585
829.652	41.97541
829.828	71.14721
830.005	42.01659
830.181	55.61814
830.357	39.50671
830.534	63.87582
830.71	48.09572
830.886	64.60616
831.063	57.30874
831.239	75.52794
831.415	30.7698
831.592	81.0186
831.768	49.16435
831.944	37.32441
832.12	81.70597
832.296	68.41978
832.473	58.99343
832.649	42.53608
832.825	59.0869
833.001	32.7444
833.177	53.56888
833.353	47.53743
833.529	24.88457
833.705	39.6447
833.881	27.77565
834.058	27.35051
834.234	29.67921
834.41	29.74425
834.586	24.2726
834.761	28.24883
834.937	32.21275
835.113	33.3932
835.289	29.85089
835.465	35.89029
835.641	29.85095
835.817	35.1972
835.993	64.29969
836.169	29.07798
836.344	43.84843
836.52	56.71743
836.696	53.06369
836.872	35.3326
837.048	113.15169
837.223	39.76951
837.399	93.34447
837.575	70.53797
837.75	66.17811
837.926	95.33236
838.102	149.57073
838.277	115.14445
838.453	161.98853
838.628	152.73065
838.804	55.48949
838.98	149.77314
839.155	69.37621
839.331	107.22018
839.506	71.40549
839.682	59.70029
839.857	81.72876
840.033	98.13844
840.208	43.66822
840.384	22.93936
840.559	50.40498
840.734	77.35915
840.91	101.63185
841.085	66.97516
841.26	62.20344
841.436	58.35942
841.611	51.95345
841.786	95.85015
841.962	127.96978
842.137	84.22665
842.312	45.04568
842.487	63.85889
842.663	63.38428
842.838	77.5233
843.013	252.2897
843.188	134.31594
843.363	115.59642
843.538	236.18317
843.714	234.81335
843.889	224.48573
844.064	193.13787
844.239	160.00071
844.414	247.75182
844.589	154.99334
844.764	267.50244
844.939	283.71824
845.114	265.81806
845.289	306.5547
845.464	359.28817
845.639	263.53184
845.814	150.53633
845.989	188.09956
846.163	206.81396
846.338	257.0306
846.513	305.43234
846.688	206.91473
846.863	223.31468
847.038	155.73829
847.212	213.23726
847.387	214.47236
847.562	225.73668
847.737	301.12567
847.911	129.18599
848.086	152.81646
848.261	295.90199
848.435	201.59446
848.61	267.83288
848.785	169.9912
848.959	308.2978
849.134	294.70653
849.308	631.57798
849.483	234.27056
849.658	361.69744
849.832	177.15829
850.007	124.07299
850.181	480.27346
850.356	231.14843
850.53	425.86572
850.705	135.53426
850.879	102.44125
851.053	194.78035
851.228	223.2269
851.402	298.19253
851.577	302.51069
851.751	395.25567
851.925	189.70871
852.099	59.67518
852.274	160.27102
852.448	211.88854
852.622	314.35254
852.797	199.05834
852.971	227.37744
853.145	260.99155
853.319	463.97542
853.493	428.87575
853.668	234.34059
853.842	518.63345
854.016	374.06421
854.19	469.23846
854.364	241.06219
854.538	305.33281
854.712	320.53113
854.886	208.05217
855.06	229.94927
855.234	92.63922
855.408	364.33009
855.582	316.16015
855.756	510.81438
855.93	378.34925
856.104	314.09719
856.278	332.90739
856.452	230.55427
856.626	232.68037
856.8	481.79601
856.973	364.00302
857.147	339.33334
857.321	322.74353
857.495	333.41115
857.669	259.09596
857.842	263.75915
858.016	400.16427
858.19	153.50833
858.364	506.09594
858.537	225.20559
858.711	360.5423
858.885	238.33589
859.058	183.35406
859.232	126.8761
859.405	117.53703
859.579	334.61752
859.753	403.52504
859.926	178.11086
860.1	153.09733
860.273	281.25569
860.447	396.0671
860.62	211.67508
860.794	504.43517
860.967	247.82167
861.141	312.64532
861.314	479.4148
861.487	301.18791
861.661	351.1826
861.834	542.92037
862.008	347.2111
862.181	325.91151
862.354	277.25868
862.528	393.94878
862.701	231.43936
862.874	143.60112
863.047	220.44574
863.221	186.36327
863.394	89.93592
863.567	295.22433
863.74	82.27012
863.913	324.52423
864.087	304.00773
864.26	357.50302
864.433	243.52136
864.606	500.64887
864.779	297.10952
864.952	104.24139
865.125	269.76852
865.298	284.07022
865.471	287.5926
865.644	433.37848
865.817	334.10595
865.99	384.59904
866.163	388.93138
866.336	185.86006
866.509	291.04277
866.682	258.43961
866.855	442.85226
867.028	137.8746
867.2	261.47327
867.373	73.79738
867.546	262.21116
867.719	482.12279
867.892	348.93909
868.064	170.1082
868.237	256.91103
868.41	242.53038
868.583	183.01093
868.755	151.48528
868.928	207.34349
869.101	549.5386
869.273	400.60052
869.446	278.43348
869.619	411.88845
869.791	356.15474
869.964	424.64745
870.136	432.94498
870.309	214.97613
870.481	284.11377
870.654	115.78126
870.826	234.01026
870.999	208.3982
871.171	365.90247
871.344	168.01743
871.516	214.38871
871.689	164.69915
871.861	254.94608
872.033	174.87113
872.206	236.51239
872.378	258.67708
872.55	259.25183
872.723	145.31363
872.895	211.15432
873.067	347.51872
873.24	285.92659
873.412	186.74227
873.584	215.63559
873.756	214.57607
873.928	249.65235
874.101	244.5767
874.273	280.76627
874.445	105.02363
874.617	132.24969
874.789	208.66409
874.961	201.50716
875.133	272.32876
875.305	253.0742
875.477	161.7437
875.649	117.77085
875.821	161.36398
875.993	350.06953
876.165	217.73233
876.337	252.42557
876.509	219.89917
876.681	248.17966
876.853	217.82907
877.025	254.9537
877.197	156.34104
877.369	140.14693
877.541	268.92997
877.712	70.9125
877.884	137.7951
878.056	233.72085
878.228	135.37732
878.4	274.00136
878.571	122.51089
878.743	86.73795
878.915	194.5626
879.086	101.83247
879.258	130.27941
879.43	114.59223
879.601	101.24595
879.773	101.55578
879.945	22.08552
880.116	40.49018
880.288	24.58661
880.459	28.29378
880.631	23.92755
880.802	27.77123
880.974	25.92425
881.145	19.28713
881.317	25.68938
881.488	20.49627
881.66	22.09914
881.831	20.44833
882.002	26.692
882.174	20.76214
882.345	25.46573
882.517	14.52202
882.688	30.6273
882.859	22.33404
883.03	38.3024
883.202	36.28511
883.373	30.63321
883.544	31.03177
883.715	49.12487
883.887	42.74192
884.058	35.4912
884.229	53.83159
884.4	52.97573
884.571	64.70894
884.742	53.40359
884.914	54.97808
885.085	90.33837
885.256	120.5124
885.427	98.32058
885.598	120.43397
885.769	119.01144
885.94	118.65428
886.111	72.21674
886.282	133.30887
886.453	110.09751
886.624	86.28599
886.795	150.9798
886.966	122.23386
887.136	169.90678
887.307	107.81621
887.478	210.49275
887.649	182.89281
887.82	190.70539
887.991	152.45368
888.161	239.46236
888.332	206.4234
888.503	118.12963
888.674	292.1426
888.844	354.47566
889.015	332.95789
889.186	155.46057
889.356	322.82197
889.527	146.4728
889.698	527.62552
889.868	197.23602
890.039	338.64394
890.209	210.63434
890.38	272.75511
890.551	259.73378
890.721	352.43336
890.892	340.48147
891.062	321.86314
891.233	356.62925
891.403	275.25169
891.574	178.12068
891.744	193.26418
891.914	235.31309
892.085	351.97297
892.255	71.77583
892.425	324.50007
892.596	195.1573
892.766	273.7625
892.936	397.88365
893.107	235.92779
893.277	120.23339
893.447	94.69893
893.618	70.76579
893.788	157.13623
893.958	82.03988
894.128	70.81053
894.298	83.17842
894.468	108.11596
894.639	51.56234
894.809	28.27861
894.979	52.40909
895.149	64.73593
895.319	50.53557
895.489	76.17029
895.659	99.02022
895.829	59.31892
895.999	63.37683
896.169	53.44066
896.339	64.63087
896.509	133.96038
896.679	153.96635
896.849	176.95957
897.019	244.08359
897.189	219.69043
897.358	165.523
897.528	296.2778
897.698	131.57075
897.868	266.5861
898.038	538.89987
898.208	474.90521
898.377	128.04921
898.547	778.37267
898.717	809.62205
898.886	323.61033
899.056	574.03758
899.226	898.83847
899.395	678.50335
899.565	730.97949
899.735	427.16715
899.904	577.87906
900.074	805.65095
900.244	265.96022
900.413	1714.06996
900.583	279.0558
900.752	3236.12277
900.922	577.71844
901.091	67.63251
901.261	671.65607
901.43	534.16861
901.599	646.11734
901.769	1433.54581
901.938	716.10495
902.108	643.20488
902.277	729.97122
902.446	282.00612
902.616	317.60619
902.785	440.76831
902.954	530.96346
903.124	292.5406
903.293	210.05387
903.462	91.15724
903.631	157.91771
903.801	100.07348
903.97	53.32802
904.139	83.48482
904.308	67.1048
904.477	56.85581
904.646	30.8451
904.816	51.97532
904.985	75.721
905.154	104.1165
