Data from WindowProjectSample_Transmission__30__00030__09853586177966566.txt Node

Date: Mon May 05 17:33:11 EDT 2025
User: jessi
Spectrometer: SR400872
Trigger mode: 0
Integration Time (sec): 5.000010E-1
Scans to average: 20
Electric dark correction enabled: true
Nonlinearity correction enabled: true
Boxcar width: 0
XAxis mode: Wavelengths
Number of Pixels in Spectrum: 3648
>>>>>Begin Spectral Data<<<<<
184.909	20370.77261
185.132	-5081.53772
185.355	-3037.39487
185.578	-16926.78448
185.801	1490.88526
186.024	10221.93188
186.247	-1724.69909
186.47	1092.73612
186.693	315.10786
186.916	252.93481
187.139	-3703.73957
187.362	3442.02288
187.585	3870.53228
187.808	3435.31826
188.031	4.25792
188.254	-54450.3434
188.476	-609.63048
188.699	6469.12489
188.922	594.17273
189.145	-15230.55517
189.368	-622.846
189.591	-1221.14468
189.813	3030.49393
190.036	-48216.04866
190.259	-816.40909
190.482	-4298.70334
190.705	6961.93885
190.927	-2333.69497
191.15	13153.00861
191.373	3119.39834
191.595	-8192.80227
191.818	-4269.23767
192.041	-6220.94185
192.263	-3499.12613
192.486	-949.34179
192.709	-3943.68293
192.931	7877.87227
193.154	-28093.11702
193.377	-2768.57655
193.599	-2506.95883
193.822	-9169.94042
194.044	-1942.04967
194.267	1115.48849
194.489	273.13813
194.712	-41219.61404
194.934	-30897.87253
195.157	1112.71287
195.379	1326.99776
195.602	-6370.60455
195.824	-1239.95123
196.047	-9072.13065
196.269	2732.66928
196.492	-6088.82305
196.714	27397.90203
196.936	-8334.80616
197.159	-1232.09576
197.381	1267.01423
197.604	413.70773
197.826	11697.74348
198.048	-10382.98329
198.271	-2737.80128
198.493	7410.09293
198.715	2280.16019
198.938	-436.60902
199.16	6813.72656
199.382	-100065.06529
199.604	2783.68194
199.827	-1025.25588
200.049	-3027.91034
200.271	13766.76462
200.493	1156.29574
200.715	-37854.15247
200.938	-6055.1941
201.16	-4161.03039
201.382	19604.22718
201.604	2288.20726
201.826	2336.96491
202.048	-1781.86337
202.27	-1900.66841
202.492	-35576.89392
202.715	2782.81113
202.937	-4451.5069
203.159	-6242.6225
203.381	1465.07435
203.603	6574.39768
203.825	6707.64436
204.047	2124.50822
204.269	-2967.65619
204.491	2153.93007
204.713	5752.46714
204.935	-488776.07263
205.156	1141.6089
205.378	-2839.78312
205.6	1573.66058
205.822	153227.38053
206.044	-1063.94667
206.266	1522.16709
206.488	4556.67819
206.71	-5299.32166
206.932	1110.18885
207.153	11560.32359
207.375	-6893.38071
207.597	-36503.02348
207.819	-2824.77957
208.041	2364.4231
208.262	506.76025
208.484	719.54183
208.706	-812.64965
208.927	-766.35955
209.149	591.4739
209.371	-2854.64169
209.593	-239.35545
209.814	-794.90232
210.036	458.52774
210.258	-663.42078
210.479	1772.33881
210.701	1548.82246
210.922	3313.52636
211.144	-3395.96143
211.366	1955.04252
211.587	8405.17485
211.809	-8091.49383
212.03	2299.71261
212.252	473.62152
212.473	1974.13114
212.695	-6874.77988
212.916	2729.27157
213.138	-642.89628
213.359	3486.08431
213.581	5211.79182
213.802	-760.48026
214.024	1061.10445
214.245	1842.22004
214.466	3134.08505
214.688	-3059.87843
214.909	-1155.39258
215.131	-1677.57058
215.352	-3265.27942
215.573	14550.88232
215.795	4947.67243
216.016	5418.89749
216.237	846.31323
216.459	3465.99418
216.68	1773.1321
216.901	4809.58904
217.122	-3129.43026
217.344	-11102.11783
217.565	3390.95314
217.786	8748.37989
218.007	16324.79415
218.228	-690.02735
218.45	5493.22499
218.671	688.7404
218.892	35496.26619
219.113	1431.07387
219.334	-385.5525
219.555	8641.52354
219.776	3180.21731
219.997	21925.627
220.219	2667.02534
220.44	-10559.20626
220.661	459.0568
220.882	1479.36106
221.103	-1091.68802
221.324	2321.47258
221.545	2281.51791
221.766	-8853.92967
221.987	852.97461
222.208	1611.40194
222.429	4163.67871
222.65	282.54562
222.87	17837.11609
223.091	716.80045
223.312	575.88465
223.533	1356.65277
223.754	1460.11297
223.975	1371.9853
224.196	1953.15616
224.417	1284.27914
224.637	634.89436
224.858	9.87129
225.079	1027.97034
225.3	643.44324
225.521	3734.2469
225.741	441.63122
225.962	493.80492
226.183	122.04087
226.404	654.22921
226.624	434.64204
226.845	589.77902
227.066	394.40666
227.286	248.56291
227.507	125.9474
227.728	106.2101
227.948	230.794
228.169	72.77863
228.389	84.96689
228.61	44.24055
228.831	60.96375
229.051	-0.53793
229.272	36.83545
229.492	56.32929
229.713	12.24976
229.933	36.14436
230.154	31.3042
230.374	54.34761
230.595	36.25257
230.815	24.04639
231.036	36.58685
231.256	-9.76206
231.477	67.21471
231.697	36.89227
231.917	35.95584
232.138	54.42913
232.358	106.18789
232.579	96.5649
232.799	20.11238
233.019	97.17995
233.24	111.58298
233.46	37.14023
233.68	59.87442
233.901	40.54013
234.121	26.78532
234.341	11.87681
234.561	-3.45566
234.782	22.17894
235.002	66.79783
235.222	-2.66796
235.442	61.02082
235.662	31.41767
235.883	59.5307
236.103	48.49157
236.323	36.09515
236.543	28.21016
236.763	39.57004
236.983	42.60231
237.203	40.97999
237.423	56.78177
237.643	85.39522
237.864	71.89417
238.084	17.552
238.304	25.79661
238.524	42.34054
238.744	37.43222
238.964	71.84555
239.184	62.91641
239.404	61.20022
239.624	34.2831
239.843	57.73632
240.063	36.55257
240.283	21.36787
240.503	23.77876
240.723	24.57193
240.943	13.82848
241.163	18.97404
241.383	14.54594
241.603	7.04844
241.822	8.91411
242.042	6.48816
242.262	8.04823
242.482	9.21331
242.702	10.29313
242.921	2.65335
243.141	6.47356
243.361	6.127
243.581	9.11409
243.8	7.39521
244.02	5.20024
244.24	8.66545
244.459	8.88474
244.679	17.39698
244.899	10.75313
245.118	12.62458
245.338	11.62151
245.558	13.69947
245.777	8.32902
245.997	10.04354
246.216	10.51114
246.436	6.20098
246.655	4.51189
246.875	3.04964
247.094	6.21438
247.314	1.96105
247.533	3.65652
247.753	4.32706
247.972	3.35237
248.192	1.00396
248.411	1.97691
248.631	3.57718
248.85	4.76348
249.07	3.9641
249.289	5.84569
249.508	4.93655
249.728	7.49046
249.947	7.12387
250.166	8.57337
250.386	3.94116
250.605	5.99105
250.824	10.13318
251.044	7.41658
251.263	28.07785
251.482	14.37785
251.701	11.4983
251.921	-0.38289
252.14	3.18199
252.359	4.14313
252.578	9.61417
252.798	3.06719
253.017	9.10718
253.236	4.54673
253.455	5.36303
253.674	9.91458
253.893	4.5619
254.112	7.68779
254.331	11.46581
254.551	8.18355
254.77	3.29194
254.989	12.77557
255.208	9.63437
255.427	14.57906
255.646	10.86962
255.865	20.91444
256.084	8.60939
256.303	10.73112
256.522	13.57919
256.741	2.84804
256.96	2.56248
257.179	7.04763
257.397	10.38879
257.616	6.1428
257.835	5.77382
258.054	14.74141
258.273	10.13724
258.492	11.09546
258.711	6.49329
258.93	3.25419
259.148	4.65457
259.367	4.42723
259.586	5.43903
259.805	2.41999
260.023	5.21036
260.242	3.69027
260.461	2.72006
260.68	1.28205
260.898	4.33292
261.117	1.30042
261.336	0.86824
261.554	3.35832
261.773	3.49058
261.992	0.57406
262.21	3.13068
262.429	3.61997
262.648	7.37868
262.866	8.14662
263.085	5.79068
263.303	4.73844
263.522	8.19591
263.74	8.49639
263.959	15.17265
264.178	6.55586
264.396	6.18209
264.615	4.9208
264.833	10.73575
265.051	8.90239
265.27	10.86667
265.488	10.69145
265.707	6.31282
265.925	11.18031
266.144	4.44491
266.362	5.40071
266.58	5.3641
266.799	4.75894
267.017	6.24877
267.235	5.02513
267.454	3.30517
267.672	1.67007
267.89	4.18838
268.109	4.4636
268.327	4.18946
268.545	0.8296
268.763	3.95411
268.982	1.60204
269.2	3.97405
269.418	3.06332
269.636	1.88125
269.854	4.6661
270.073	3.17571
270.291	1.98818
270.509	1.71465
270.727	4.25472
270.945	7.15613
271.163	6.9992
271.381	1.40971
271.599	3.2051
271.817	5.33047
272.036	1.7433
272.254	3.17091
272.472	2.38419
272.69	2.28999
272.908	2.23452
273.126	4.35364
273.344	5.32757
273.562	1.73387
273.779	2.61551
273.997	3.76986
274.215	4.09068
274.433	2.73395
274.651	4.46017
274.869	4.78146
275.087	2.81771
275.305	3.9934
275.523	2.68683
275.74	2.75637
275.958	5.33116
276.176	7.99977
276.394	2.60371
276.612	3.15675
276.829	3.30265
277.047	2.47886
277.265	2.91845
277.483	3.59045
277.7	4.07867
277.918	3.46774
278.136	6.29075
278.353	2.76023
278.571	1.95107
278.789	4.37791
279.006	0.72825
279.224	2.78476
279.442	5.13698
279.659	3.53179
279.877	2.42909
280.094	5.92028
280.312	1.07136
280.529	3.4668
280.747	1.01177
280.964	2.49951
281.182	5.92636
281.399	2.59802
281.617	3.6635
281.834	2.57292
282.052	1.91374
282.269	3.10528
282.487	2.4109
282.704	2.06892
282.921	2.17522
283.139	3.34764
283.356	3.97841
283.574	3.70755
283.791	1.74966
284.008	5.402
284.226	2.96227
284.443	3.23981
284.66	4.41933
284.877	3.35531
285.095	2.06114
285.312	1.57539
285.529	0.98678
285.746	0.79599
285.964	1.99842
286.181	1.3703
286.398	1.85454
286.615	2.5112
286.832	2.56485
287.05	0.66816
287.267	1.78599
287.484	1.76172
287.701	2.45374
287.918	2.57904
288.135	2.64562
288.352	1.08994
288.569	1.39974
288.786	2.4756
289.003	2.08087
289.22	2.92079
289.437	1.5944
289.654	2.79071
289.871	3.02644
290.088	2.82743
290.305	2.23322
290.522	1.71878
290.739	2.15701
290.956	3.05868
291.173	3.46312
291.39	3.303
291.607	2.40514
291.824	1.65637
292.04	1.20851
292.257	2.70106
292.474	3.26003
292.691	2.05435
292.908	0.88799
293.125	1.57089
293.341	1.21112
293.558	4.90109
293.775	1.86163
293.992	2.0118
294.208	0.95693
294.425	1.44584
294.642	2.01897
294.858	2.89814
295.075	0.80071
295.292	1.99788
295.508	2.51436
295.725	4.15311
295.942	2.18156
296.158	1.77233
296.375	2.53418
296.591	1.96723
296.808	2.3986
297.024	2.73283
297.241	3.02054
297.458	3.27509
297.674	1.20149
297.891	2.82889
298.107	2.66943
298.323	2.20475
298.54	4.22181
298.756	2.62827
298.973	1.97594
299.189	4.54112
299.406	2.80326
299.622	4.20051
299.838	4.27785
300.055	4.1432
300.271	2.37344
300.487	2.83686
300.704	3.19857
300.92	2.59163
301.136	6.18721
301.353	4.50754
301.569	3.87879
301.785	4.26625
302.001	4.67541
302.218	4.27539
302.434	4.64217
302.65	3.18045
302.866	3.8648
303.083	6.39297
303.299	6.40094
303.515	4.524
303.731	4.87138
303.947	3.30854
304.163	4.07736
304.379	4.81438
304.595	5.21666
304.812	4.0839
305.028	4.13191
305.244	4.47219
305.46	5.31597
305.676	5.65468
305.892	6.19982
306.108	5.42724
306.324	4.60779
306.54	6.54375
306.756	5.47979
306.972	5.44338
307.187	5.09053
307.403	6.36338
307.619	4.80991
307.835	6.06595
308.051	6.63242
308.267	4.39524
308.483	6.42256
308.699	5.76216
308.914	5.46269
309.13	5.26543
309.346	4.31499
309.562	4.78383
309.778	4.51417
309.993	6.02644
310.209	5.97651
310.425	4.79041
310.641	5.77202
310.856	5.06088
311.072	5.04592
311.288	5.81678
311.503	6.22309
311.719	4.40525
311.935	4.64192
312.15	6.6129
312.366	6.16732
312.581	6.40656
312.797	6.13086
313.013	6.84378
313.228	5.54114
313.444	5.67392
313.659	5.37202
313.875	6.40216
314.09	5.90233
314.306	7.13353
314.521	6.73454
314.737	6.7003
314.952	5.92948
315.168	5.95005
315.383	6.37382
315.599	5.63898
315.814	5.77356
316.029	6.62965
316.245	5.08286
316.46	4.39697
316.675	6.97351
316.891	7.68256
317.106	8.77059
317.321	6.18431
317.537	6.81033
317.752	6.85114
317.967	6.89199
318.183	5.20931
318.398	5.83661
318.613	6.97806
318.828	7.537
319.043	6.86281
319.259	5.94129
319.474	6.28888
319.689	7.29617
319.904	4.6985
320.119	7.14682
320.334	6.46275
320.549	6.04368
320.765	7.25591
320.98	6.66226
321.195	6.60479
321.41	6.24336
321.625	6.81673
321.84	7.74077
322.055	7.66702
322.27	5.8483
322.485	5.17463
322.7	6.67811
322.915	6.99685
323.13	5.8376
323.345	7.97936
323.56	7.65978
323.775	7.11416
323.989	6.84116
324.204	6.7365
324.419	7.6118
324.634	5.56223
324.849	6.48372
325.064	9.68204
325.279	7.55273
325.493	6.98012
325.708	7.26432
325.923	5.89262
326.138	6.42512
326.352	8.08719
326.567	7.61719
326.782	6.19409
326.997	6.32018
327.211	7.12902
327.426	6.78423
327.641	6.43285
327.855	5.39687
328.07	7.07948
328.285	8.30751
328.499	6.1043
328.714	6.79558
328.928	6.91306
329.143	6.43458
329.358	7.59627
329.572	7.37069
329.787	7.84945
330.001	8.88869
330.216	5.47037
330.43	8.49912
330.645	7.73641
330.859	7.36244
331.074	5.80317
331.288	6.69261
331.503	7.99579
331.717	5.68712
331.931	6.7402
332.146	6.89126
332.36	8.30777
332.575	6.96313
332.789	6.85372
333.003	6.88747
333.218	7.15723
333.432	6.1739
333.646	7.50298
333.86	8.26004
334.075	8.19182
334.289	6.23461
334.503	5.57696
334.717	7.28137
334.932	6.88732
335.146	7.62623
335.36	6.10757
335.574	7.26795
335.788	6.80238
336.003	7.52271
336.217	7.37005
336.431	7.20289
336.645	6.29385
336.859	5.69336
337.073	6.7257
337.287	7.14409
337.501	5.59771
337.715	7.14304
337.929	7.37207
338.143	5.78568
338.357	6.57089
338.571	6.48026
338.785	7.55452
338.999	6.44323
339.213	6.43199
339.427	5.78273
339.641	7.97937
339.855	6.40959
340.069	6.02281
340.283	7.49258
340.497	8.26166
340.711	7.28602
340.924	6.86359
341.138	5.97524
341.352	5.71433
341.566	6.92507
341.78	5.45296
341.993	6.37295
342.207	6.12984
342.421	7.12118
342.635	6.68233
342.848	6.48007
343.062	4.90853
343.276	6.25516
343.49	8.32942
343.703	6.19168
343.917	7.7932
344.131	7.76863
344.344	6.21683
344.558	6.62879
344.771	5.72188
344.985	8.14209
345.199	8.24358
345.412	7.26114
345.626	7.20712
345.839	5.66311
346.053	5.93005
346.266	6.11439
346.48	7.18302
346.693	7.1731
346.907	6.83605
347.12	6.01444
347.334	6.85191
347.547	7.1866
347.76	6.64568
347.974	7.64081
348.187	6.72828
348.401	6.53087
348.614	6.01405
348.827	6.44263
349.041	6.99284
349.254	5.28918
349.467	6.26304
349.681	6.0036
349.894	5.98313
350.107	7.70228
350.32	8.30543
350.534	5.42995
350.747	6.42042
350.96	6.05458
351.173	6.16004
351.386	6.50566
351.6	6.1644
351.813	6.35048
352.026	6.45867
352.239	5.83752
352.452	6.32994
352.665	7.49096
352.878	6.54979
353.092	8.26085
353.305	7.33937
353.518	6.9228
353.731	5.85598
353.944	7.53276
354.157	6.32184
354.37	6.26673
354.583	5.77031
354.796	5.63005
355.009	7.44754
355.222	7.09117
355.435	6.84164
355.647	7.56316
355.86	6.22786
356.073	6.83165
356.286	6.47157
356.499	7.50167
356.712	7.32545
356.925	7.32291
357.138	7.39832
357.35	6.31236
357.563	6.58819
357.776	6.98911
357.989	6.92591
358.201	7.37847
358.414	7.22466
358.627	8.06393
358.84	6.87471
359.052	6.0627
359.265	6.4634
359.478	7.66701
359.69	5.13857
359.903	7.54043
360.116	7.79572
360.328	5.77607
360.541	7.62834
360.753	6.55947
360.966	6.87736
361.179	6.99288
361.391	6.83655
361.604	6.72458
361.816	6.99509
362.029	6.94343
362.241	6.66609
362.454	7.0204
362.666	6.54289
362.879	7.56642
363.091	6.93745
363.304	6.83257
363.516	6.82717
363.728	6.3117
363.941	7.39283
364.153	7.18933
364.366	5.69335
364.578	6.32259
364.79	7.13333
365.003	7.23001
365.215	6.42079
365.427	7.4554
365.639	7.65908
365.852	7.03862
366.064	8.38896
366.276	6.80315
366.488	7.11313
366.701	6.51637
366.913	6.75316
367.125	6.8238
367.337	6.30191
367.549	6.59735
367.762	6.96421
367.974	6.85849
368.186	6.56358
368.398	7.5671
368.61	7.16934
368.822	7.31416
369.034	6.63013
369.246	7.43277
369.458	9.07589
369.67	6.3542
369.882	8.11443
370.094	5.51699
370.306	8.00598
370.518	6.59084
370.73	6.46852
370.942	6.56651
371.154	6.83337
371.366	6.73951
371.578	7.34508
371.79	6.81048
372.002	7.74047
372.214	8.64314
372.425	6.8711
372.637	8.17137
372.849	7.32033
373.061	5.72753
373.273	7.24133
373.484	7.29574
373.696	7.59061
373.908	5.56319
374.12	7.67879
374.331	7.33882
374.543	6.39779
374.755	6.4277
374.967	7.112
375.178	7.66783
375.39	6.73133
375.602	7.1718
375.813	5.94524
376.025	6.52332
376.236	7.28839
376.448	7.3737
376.66	6.98557
376.871	7.1213
377.083	8.12743
377.294	8.32236
377.506	6.92516
377.717	8.26077
377.929	7.38482
378.14	7.0512
378.352	7.48355
378.563	7.67161
378.775	8.18059
378.986	6.67042
379.197	7.31614
379.409	6.63933
379.62	7.59681
379.832	7.53883
380.043	7.02838
380.254	7.38438
380.466	6.45357
380.677	9.1987
380.888	8.48819
381.1	9.09467
381.311	9.114
381.522	7.48137
381.733	9.15857
381.945	7.32051
382.156	7.30582
382.367	7.07408
382.578	9.30547
382.789	9.39092
383.001	6.98148
383.212	8.64748
383.423	8.56299
383.634	8.16792
383.845	7.96251
384.056	7.30812
384.267	7.66088
384.478	7.57863
384.69	6.83394
384.901	7.90882
385.112	7.76073
385.323	8.86306
385.534	7.92096
385.745	7.95304
385.956	7.77607
386.167	7.20424
386.378	8.05896
386.588	7.30077
386.799	7.08598
387.01	6.75309
387.221	8.30876
387.432	7.80921
387.643	8.83382
387.854	7.6037
388.065	7.51799
388.275	7.76703
388.486	7.31078
388.697	7.68748
388.908	7.50339
389.119	8.56016
389.329	8.65378
389.54	7.90653
389.751	8.08555
389.962	8.80043
390.172	7.96838
390.383	7.82753
390.594	7.344
390.804	7.5335
391.015	7.60502
391.226	8.09295
391.436	8.33554
391.647	8.40329
391.858	8.44841
392.068	7.28141
392.279	7.50991
392.489	8.28395
392.7	8.8004
392.91	7.80208
393.121	7.63742
393.331	8.41814
393.542	8.81658
393.752	8.7041
393.963	8.52274
394.173	8.58766
394.384	8.60104
394.594	8.26583
394.804	7.6256
395.015	8.44794
395.225	8.72471
395.436	7.79749
395.646	8.59858
395.856	8.11802
396.067	7.41639
396.277	8.95208
396.487	8.56013
396.697	8.65582
396.908	8.56979
397.118	8.63772
397.328	8.49198
397.538	8.90767
397.749	7.8366
397.959	8.85852
398.169	8.69684
398.379	7.63153
398.589	8.71075
398.8	8.71378
399.01	8.63669
399.22	8.33064
399.43	9.83976
399.64	8.59965
399.85	8.82639
400.06	8.81237
400.27	8.04764
400.48	8.59973
400.69	9.50939
400.9	8.37146
401.11	7.95792
401.32	9.05826
401.53	8.39746
401.74	9.69417
401.95	8.97843
402.16	8.37736
402.37	8.91737
402.58	8.58273
402.79	9.13237
403	9.49671
403.209	8.53344
403.419	9.69969
403.629	8.51806
403.839	9.6436
404.049	9.43292
404.258	8.91547
404.468	8.68791
404.678	9.44207
404.888	10.06987
405.097	9.08212
405.307	9.179
405.517	9.73743
405.727	9.57008
405.936	9.21755
406.146	9.54216
406.356	10.21098
406.565	9.37297
406.775	9.1281
406.984	9.07767
407.194	10.46724
407.404	9.42389
407.613	9.82177
407.823	9.93967
408.032	10.31948
408.242	10.03218
408.451	9.20195
408.661	9.54991
408.87	10.72689
409.08	9.12283
409.289	9.91873
409.499	9.88328
409.708	9.762
409.918	8.57945
410.127	10.08489
410.336	10.82211
410.546	10.41375
410.755	9.70885
410.964	9.8152
411.174	9.46106
411.383	10.37931
411.592	10.29601
411.802	9.60185
412.011	10.53259
412.22	9.96819
412.429	11.20954
412.639	11.18422
412.848	10.65137
413.057	11.07003
413.266	10.96011
413.475	10.38468
413.685	10.56568
413.894	11.03692
414.103	11.09901
414.312	10.98723
414.521	10.36695
414.73	10.73894
414.939	11.93428
415.148	11.04819
415.357	10.81945
415.566	10.68486
415.776	10.74132
415.985	10.79407
416.194	11.45969
416.403	12.21389
416.611	10.45641
416.82	11.04168
417.029	11.34231
417.238	11.02752
417.447	10.93308
417.656	11.33277
417.865	11.0246
418.074	11.35372
418.283	11.58671
418.492	12.15829
418.7	11.99078
418.909	13.07554
419.118	12.26431
419.327	12.75215
419.536	12.71482
419.744	12.83961
419.953	14.17241
420.162	14.48476
420.371	14.10473
420.579	14.90227
420.788	15.75278
420.997	15.88259
421.205	16.46255
421.414	16.14576
421.623	16.43176
421.831	16.06901
422.04	16.56301
422.249	15.6681
422.457	15.97494
422.666	15.05227
422.874	15.88764
423.083	15.91556
423.291	16.0007
423.5	16.09114
423.708	16.49253
423.917	17.02496
424.125	16.65866
424.334	16.62006
424.542	18.19777
424.751	17.82146
424.959	17.33811
425.167	17.30559
425.376	17.24504
425.584	15.7931
425.793	15.65295
426.001	14.64714
426.209	14.53359
426.418	13.36343
426.626	12.95075
426.834	12.92555
427.042	13.20009
427.251	12.80784
427.459	13.62988
427.667	13.32787
427.875	12.58824
428.084	12.88318
428.292	13.82215
428.5	13.55143
428.708	12.74152
428.916	12.70778
429.124	13.33906
429.333	13.11719
429.541	13.25071
429.749	13.38784
429.957	13.34752
430.165	14.89925
430.373	12.69385
430.581	13.56446
430.789	14.31003
430.997	13.4263
431.205	13.08019
431.413	13.87961
431.621	13.4975
431.829	14.00439
432.037	13.69307
432.245	13.93478
432.453	14.07038
432.661	13.80423
432.869	14.91512
433.076	13.47216
433.284	13.96485
433.492	14.39604
433.7	14.63677
433.908	13.91967
434.116	14.17147
434.323	14.35741
434.531	14.11495
434.739	14.52112
434.947	14.7012
435.154	14.69054
435.362	14.25109
435.57	14.15632
435.778	13.81264
435.985	14.39456
436.193	14.06595
436.401	14.97791
436.608	14.32056
436.816	14.18477
437.023	15.16406
437.231	15.33256
437.439	14.59897
437.646	14.76733
437.854	14.65762
438.061	14.92945
438.269	14.547
438.476	14.97577
438.684	14.69547
438.891	14.5271
439.099	14.34211
439.306	14.23405
439.514	14.35596
439.721	15.48651
439.929	15.30721
440.136	16.33548
440.343	16.53386
440.551	16.59366
440.758	18.11701
440.965	16.87279
441.173	16.55344
441.38	16.49972
441.587	16.08135
441.795	15.98768
442.002	15.39655
442.209	15.40259
442.416	15.44451
442.624	15.46697
442.831	15.26411
443.038	14.92561
443.245	14.62262
443.452	15.01026
443.66	15.50921
443.867	15.017
444.074	14.98891
444.281	14.92117
444.488	15.18338
444.695	15.34781
444.902	15.22976
445.109	16.51502
445.316	16.6928
445.523	17.29796
445.73	17.76007
445.937	18.89374
446.144	19.45326
446.351	20.09705
446.558	19.09107
446.765	21.2785
446.972	20.24373
447.179	20.03541
447.386	20.36116
447.593	18.54682
447.8	19.46749
448.007	17.75632
448.214	16.89514
448.42	16.27396
448.627	16.32635
448.834	15.88739
449.041	15.78926
449.248	15.70225
449.454	16.1233
449.661	16.75923
449.868	15.72636
450.075	15.62757
450.281	14.95958
450.488	15.41945
450.695	15.47983
450.901	15.60886
451.108	15.64937
451.315	16.38254
451.521	15.83083
451.728	16.61942
451.935	15.66172
452.141	15.97147
452.348	15.94547
452.554	16.12163
452.761	15.86356
452.967	17.02565
453.174	16.29793
453.38	16.4387
453.587	15.71306
453.793	16.36899
454	16.76242
454.206	17.48477
454.413	16.90148
454.619	16.65609
454.825	16.06211
455.032	16.88922
455.238	16.91744
455.445	15.84504
455.651	16.61866
455.857	15.56876
456.064	16.39429
456.27	16.35753
456.476	16.43403
456.682	15.97807
456.889	16.77035
457.095	16.84254
457.301	17.90115
457.507	16.72351
457.714	16.81107
457.92	16.79038
458.126	16.44092
458.332	16.76903
458.538	16.61964
458.744	16.85402
458.951	16.83016
459.157	19.27934
459.363	19.05743
459.569	19.74116
459.775	20.4389
459.981	20.71065
460.187	21.33151
460.393	21.31632
460.599	21.39318
460.805	20.26486
461.011	19.09317
461.217	18.42098
461.423	18.14384
461.629	17.4546
461.835	17.7358
462.041	17.47294
462.247	18.35029
462.453	17.37318
462.658	17.35656
462.864	17.76571
463.07	17.6271
463.276	17.6049
463.482	17.52506
463.688	18.31831
463.893	17.26893
464.099	17.55989
464.305	18.57392
464.511	17.3512
464.716	17.69252
464.922	18.21145
465.128	17.37399
465.333	18.65046
465.539	18.15398
465.745	17.80571
465.95	17.83021
466.156	19.39088
466.362	18.60315
466.567	18.00442
466.773	17.63334
466.978	18.80647
467.184	17.57084
467.389	17.23497
467.595	18.21862
467.8	17.94292
468.006	19.0249
468.211	18.85206
468.417	17.69312
468.622	18.47216
468.828	18.58075
469.033	18.50213
469.239	19.67052
469.444	18.11395
469.649	18.68358
469.855	18.34748
470.06	18.37943
470.266	18.05982
470.471	18.85963
470.676	18.80408
470.881	17.68866
471.087	19.35412
471.292	19.96449
471.497	17.94261
471.703	18.53716
471.908	18.30851
472.113	18.7249
472.318	19.05124
472.523	18.29843
472.729	18.94109
472.934	19.00006
473.139	18.558
473.344	19.05846
473.549	19.50827
473.754	18.54082
473.959	20.38323
474.164	18.49728
474.369	18.82516
474.575	19.29484
474.78	18.95071
474.985	18.54057
475.19	18.07398
475.395	18.60679
475.6	18.96354
475.804	19.69175
476.009	19.05269
476.214	19.10419
476.419	18.93882
476.624	18.35008
476.829	18.78007
477.034	19.49197
477.239	18.84853
477.444	19.54591
477.648	19.5761
477.853	19.5397
478.058	19.09423
478.263	18.99698
478.468	18.84346
478.672	18.87844
478.877	20.12077
479.082	20.08667
479.287	19.66769
479.491	19.4558
479.696	18.977
479.901	19.79392
480.105	19.79843
480.31	19.12678
480.515	19.46161
480.719	20.65417
480.924	19.21729
481.128	18.96573
481.333	19.73914
481.538	19.78161
481.742	20.6483
481.947	22.14199
482.151	23.98246
482.356	25.826
482.56	29.67763
482.765	33.41124
482.969	39.07661
483.174	44.23195
483.378	50.73411
483.582	53.69528
483.787	57.42274
483.991	59.6388
484.196	60.62948
484.4	60.51471
484.604	60.47513
484.809	56.68644
485.013	53.32582
485.217	48.72543
485.422	43.91742
485.626	39.77834
485.83	37.11914
486.034	35.64026
486.239	35.71209
486.443	36.46775
486.647	37.33667
486.851	39.1098
487.055	41.85351
487.26	42.68463
487.464	44.58653
487.668	44.62774
487.872	46.24047
488.076	46.18832
488.28	44.9564
488.484	42.67069
488.688	41.24016
488.892	39.21419
489.096	36.33813
489.3	33.91176
489.504	31.51184
489.708	29.64601
489.912	28.78377
490.116	27.86831
490.32	27.60043
490.524	29.2525
490.728	30.92625
490.932	32.85481
491.136	35.02457
491.34	37.14555
491.544	38.09382
491.748	38.81156
491.951	38.90081
492.155	38.37697
492.359	37.32951
492.563	34.93504
492.767	33.02809
492.97	30.02078
493.174	27.02589
493.378	24.57443
493.582	22.06935
493.785	20.84039
493.989	20.93577
494.193	20.85991
494.396	20.7282
494.6	21.18452
494.804	20.81963
495.007	20.50316
495.211	20.48668
495.414	20.65073
495.618	20.82682
495.822	21.40924
496.025	20.78861
496.229	21.16814
496.432	20.49057
496.636	20.98987
496.839	20.88017
497.043	21.66502
497.246	21.1973
497.45	21.00886
497.653	21.22755
497.856	21.11155
498.06	20.78662
498.263	21.11295
498.467	21.01505
498.67	21.61346
498.873	21.37117
499.077	21.15243
499.28	21.12546
499.483	21.49072
499.686	21.50865
499.89	21.46435
500.093	21.79998
500.296	20.94762
500.499	22.02498
500.703	21.32574
500.906	21.4484
501.109	22.20594
501.312	21.33341
501.515	21.36238
501.719	21.62935
501.922	21.96394
502.125	21.45088
502.328	21.39868
502.531	20.93846
502.734	21.50489
502.937	20.71293
503.14	21.54738
503.343	21.2005
503.546	21.30447
503.749	21.20924
503.952	21.99399
504.155	21.27516
504.358	21.9119
504.561	21.67316
504.764	21.07803
504.967	21.67407
505.17	21.6088
505.373	22.37196
505.576	21.77902
505.778	22.19085
505.981	21.43715
506.184	22.32059
506.387	21.09001
506.59	22.83876
506.793	22.36747
506.995	22.09088
507.198	21.08765
507.401	22.15172
507.604	22.28915
507.806	21.46903
508.009	21.66491
508.212	22.39097
508.414	21.62315
508.617	21.84859
508.82	22.09811
509.022	22.73971
509.225	22.24647
509.427	21.50456
509.63	22.7557
509.833	22.13593
510.035	21.94198
510.238	21.49233
510.44	22.83317
510.643	21.42082
510.845	23.12865
511.048	22.48134
511.25	22.06151
511.453	22.20576
511.655	22.34144
511.858	22.15793
512.06	22.69409
512.262	22.33722
512.465	22.76697
512.667	22.14774
512.869	21.75794
513.072	22.6296
513.274	22.70051
513.476	22.8382
513.679	22.83842
513.881	21.99967
514.083	23.21966
514.286	22.17527
514.488	22.27577
514.69	22.00344
514.892	21.85836
515.094	22.94328
515.297	22.22585
515.499	22.69959
515.701	22.16901
515.903	23.48345
516.105	23.5345
516.307	23.0254
516.509	21.82728
516.711	22.20973
516.913	22.72312
517.116	22.73304
517.318	22.53264
517.52	23.27846
517.722	23.06768
517.924	22.12704
518.126	22.9651
518.328	22.85075
518.529	23.81187
518.731	24.80625
518.933	23.34443
519.135	23.62295
519.337	24.1906
519.539	23.2753
519.741	22.3692
519.943	23.00288
520.145	22.86308
520.346	23.42221
520.548	22.97733
520.75	23.21809
520.952	22.95833
521.153	23.27663
521.355	23.34652
521.557	22.67298
521.759	23.34112
521.96	23.12904
522.162	22.69255
522.364	23.7203
522.565	22.87013
522.767	23.45573
522.969	23.72279
523.17	23.40477
523.372	23.37898
523.573	23.03881
523.775	23.12605
523.977	22.8633
524.178	24.17102
524.38	22.99409
524.581	23.64981
524.783	23.1124
524.984	23.60685
525.186	23.57397
525.387	24.56972
525.589	25.09608
525.79	25.66688
525.991	25.95715
526.193	26.78365
526.394	26.48915
526.596	27.6029
526.797	28.36975
526.998	28.19552
527.2	29.7851
527.401	33.05206
527.602	35.97971
527.803	40.60495
528.005	44.19256
528.206	47.8644
528.407	50.59696
528.608	52.11042
528.81	53.18268
529.011	53.18025
529.212	53.93729
529.413	51.59604
529.614	48.78714
529.815	45.63136
530.017	41.8939
530.218	37.51344
530.419	33.87001
530.62	31.93998
530.821	30.02824
531.022	27.82357
531.223	27.99414
531.424	27.22069
531.625	27.38521
531.826	27.01105
532.027	28.14523
532.228	30.26656
532.429	31.44323
532.63	32.93388
532.831	34.95099
533.032	35.94687
533.233	37.32159
533.433	37.19717
533.634	37.58507
533.835	36.69041
534.036	35.50061
534.237	34.08256
534.438	32.05432
534.638	29.40966
534.839	27.64886
535.04	26.2721
535.241	25.15047
535.441	25.62234
535.642	25.3251
535.843	25.15966
536.043	25.73916
536.244	26.25328
536.445	26.74655
536.645	27.65102
536.846	27.43299
537.047	27.8427
537.247	26.53708
537.448	25.86127
537.648	25.05829
537.849	24.49045
538.049	24.54107
538.25	24.83794
538.451	24.65563
538.651	24.01054
538.851	24.80975
539.052	25.05711
539.252	24.92387
539.453	24.4554
539.653	24.58683
539.854	24.45125
540.054	24.6886
540.254	27.8159
540.455	30.74363
540.655	32.66502
540.855	36.25774
541.056	38.56154
541.256	39.60935
541.456	41.37148
541.657	41.74896
541.857	42.21989
542.057	40.74938
542.257	39.56603
542.458	38.70556
542.658	36.88097
542.858	33.85184
543.058	32.15423
543.258	30.67876
543.458	28.38224
543.659	27.20683
543.859	27.08534
544.059	26.07973
544.259	25.08714
544.459	25.66585
544.659	24.94005
544.859	25.36095
545.059	24.91467
545.259	25.44682
545.459	25.12925
545.659	25.54993
545.859	25.16557
546.059	25.31145
546.259	24.78128
546.459	24.56341
546.659	24.80285
546.859	25.56575
547.059	25.27222
547.258	25.33687
547.458	25.48007
547.658	24.74592
547.858	24.69897
548.058	25.4099
548.258	25.16524
548.457	24.95531
548.657	26.65016
548.857	25.19635
549.057	25.8398
549.256	25.55649
549.456	25.01901
549.656	24.31732
549.855	26.43606
550.055	25.07874
550.255	26.30896
550.454	25.49271
550.654	25.89216
550.853	26.05031
551.053	25.78499
551.253	25.40715
551.452	25.68844
551.652	24.61043
551.851	24.60862
552.051	25.1366
552.25	25.19433
552.45	25.02787
552.649	25.14944
552.849	25.12278
553.048	25.53883
553.248	26.00009
553.447	24.87687
553.646	25.91322
553.846	26.99978
554.045	26.25153
554.244	24.85945
554.444	26.40435
554.643	25.11797
554.842	26.53851
555.042	26.76247
555.241	25.11411
555.44	24.86849
555.64	25.90537
555.839	26.50301
556.038	25.96016
556.237	24.98289
556.436	25.72582
556.636	25.76716
556.835	25.001
557.034	26.46713
557.233	25.48036
557.432	24.52168
557.631	26.13729
557.83	25.51812
558.029	25.36396
558.228	25.16853
558.427	25.07491
558.626	25.80589
558.825	24.98174
559.024	25.4597
559.223	26.91076
559.422	25.49512
559.621	25.99669
559.82	24.41057
560.019	25.69841
560.218	25.35325
560.417	24.14935
560.616	25.28474
560.815	27.72937
561.014	24.73055
561.212	26.74393
561.411	25.8431
561.61	24.89329
561.809	25.63997
562.008	26.79171
562.206	25.59424
562.405	26.36187
562.604	25.69759
562.803	25.99627
563.001	25.66914
563.2	25.05935
563.399	26.08302
563.597	25.10893
563.796	25.66014
563.995	25.03756
564.193	26.29995
564.392	25.65656
564.59	27.07572
564.789	24.54305
564.988	25.69333
565.186	26.06022
565.385	25.70744
565.583	25.72027
565.782	25.79445
565.98	25.70105
566.179	25.75536
566.377	25.4111
566.575	25.47737
566.774	26.84342
566.972	26.53481
567.171	27.41955
567.369	26.94739
567.567	26.39464
567.766	26.19414
567.964	24.80929
568.162	26.30836
568.361	26.88454
568.559	26.03696
568.757	26.14095
568.956	26.05998
569.154	26.24677
569.352	26.4429
569.55	26.07443
569.748	26.08034
569.947	25.6187
570.145	25.15635
570.343	25.43358
570.541	26.96478
570.739	25.20316
570.937	25.91104
571.135	26.40014
571.333	27.40425
571.532	27.37627
571.73	26.35113
571.928	26.56934
572.126	26.37517
572.324	25.91645
572.522	26.9989
572.72	28.19971
572.918	26.24617
573.116	26.68852
573.313	26.00809
573.511	26.29917
573.709	25.80253
573.907	26.94243
574.105	26.15007
574.303	25.31908
574.501	25.2363
574.699	26.63239
574.896	26.53565
575.094	26.57153
575.292	25.47367
575.49	26.9479
575.688	26.22447
575.885	27.22748
576.083	28.01937
576.281	26.81779
576.478	26.0172
576.676	26.66246
576.874	25.63099
577.071	26.35994
577.269	28.08481
577.467	26.43573
577.664	26.26265
577.862	27.04765
578.059	25.82446
578.257	26.94385
578.455	26.12317
578.652	26.41785
578.85	24.99654
579.047	26.36524
579.245	26.14008
579.442	26.29489
579.64	26.12623
579.837	25.23554
580.034	28.31713
580.232	26.24809
580.429	25.23982
580.627	26.80437
580.824	27.5138
581.021	27.08046
581.219	25.98927
581.416	25.85173
581.613	27.52013
581.811	27.56894
582.008	25.66704
582.205	27.21892
582.402	26.66846
582.6	28.12074
582.797	26.43289
582.994	26.81172
583.191	27.18554
583.388	26.3922
583.586	27.24863
583.783	27.33121
583.98	25.68895
584.177	26.52263
584.374	24.47067
584.571	26.23989
584.768	26.27198
584.965	26.15055
585.162	27.24214
585.359	27.98449
585.556	26.38962
585.753	26.68399
585.95	25.41738
586.147	25.92796
586.344	27.05219
586.541	26.30326
586.738	25.62401
586.935	26.65956
587.132	26.09226
587.329	27.53522
587.526	26.43151
587.722	30.41416
587.919	25.45133
588.116	26.966
588.313	27.71309
588.51	28.21808
588.706	26.3436
588.903	27.18548
589.1	27.35876
589.297	28.96826
589.493	26.66671
589.69	27.05179
589.887	26.25156
590.083	25.60585
590.28	26.16593
590.477	27.4179
590.673	27.30876
590.87	27.95631
591.067	26.4067
591.263	27.11146
591.46	26.89906
591.656	26.46631
591.853	27.96653
592.049	26.00717
592.246	26.33866
592.442	27.58412
592.639	27.91765
592.835	25.97484
593.032	27.18078
593.228	25.40954
593.425	25.57002
593.621	25.48911
593.817	27.06153
594.014	26.02797
594.21	26.96417
594.406	27.63005
594.603	27.27166
594.799	26.16533
594.995	25.00415
595.192	27.72357
595.388	26.59347
595.584	26.56141
595.78	25.8437
595.977	29.05053
596.173	28.07376
596.369	26.61179
596.565	26.09875
596.761	25.81397
596.957	27.78571
597.154	26.43406
597.35	26.52445
597.546	26.39326
597.742	27.47084
597.938	27.11134
598.134	26.33556
598.33	27.26468
598.526	28.01801
598.722	27.16273
598.918	28.52669
599.114	27.62358
599.31	26.01312
599.506	26.77559
599.702	26.15525
599.898	27.08648
600.094	27.38328
600.29	27.51963
600.485	27.68734
600.681	26.087
600.877	28.34171
601.073	26.82709
601.269	28.68249
601.465	28.10162
601.66	26.07464
601.856	25.31578
602.052	28.73981
602.248	26.71982
602.443	25.2052
602.639	26.06578
602.835	26.37303
603.03	25.98488
603.226	27.60657
603.422	26.24442
603.617	26.94191
603.813	26.70674
604.009	26.69355
604.204	27.99234
604.4	25.957
604.595	27.99435
604.791	26.25239
604.986	27.32902
605.182	26.39892
605.377	26.79472
605.573	26.71349
605.768	27.11054
605.964	27.62085
606.159	27.72219
606.355	27.95078
606.55	26.75501
606.746	28.15736
606.941	26.87186
607.136	28.7913
607.332	29.56618
607.527	25.70686
607.722	27.13565
607.918	26.73811
608.113	26.39451
608.308	27.84547
608.503	27.39931
608.699	27.66794
608.894	27.52926
609.089	26.65264
609.284	27.64497
609.479	26.89928
609.675	27.86864
609.87	27.17298
610.065	27.96653
610.26	28.23502
610.455	28.20719
610.65	27.69152
610.845	28.02895
611.04	28.48068
611.235	27.58786
611.43	27.74751
611.625	26.84381
611.82	29.25169
612.015	27.07806
612.21	29.19083
612.405	26.30078
612.6	29.18993
612.795	28.78378
612.99	28.40149
613.185	26.47101
613.38	26.71554
613.575	27.52192
613.77	30.57986
613.965	25.97754
614.159	26.65207
614.354	28.57239
614.549	28.66731
614.744	28.0375
614.938	26.35411
615.133	26.07746
615.328	29.07327
615.523	28.31287
615.717	30.49813
615.912	26.916
616.107	27.35746
616.301	27.08153
616.496	26.65818
616.691	28.95374
616.885	28.10206
617.08	30.42118
617.274	28.38824
617.469	29.45649
617.664	28.11864
617.858	26.63952
618.053	27.85541
618.247	26.73614
618.442	25.00553
618.636	29.14247
618.831	26.33721
619.025	26.62217
619.219	30.39128
619.414	24.12203
619.608	26.85778
619.803	26.6053
619.997	29.48221
620.191	28.47208
620.386	27.7653
620.58	27.35429
620.774	25.46748
620.969	25.64305
621.163	27.40249
621.357	26.19
621.551	27.03263
621.746	27.53778
621.94	26.71214
622.134	31.03519
622.328	29.66623
622.522	25.56124
622.716	28.53431
622.911	28.76398
623.105	28.20008
623.299	27.96809
623.493	31.07261
623.687	26.50352
623.881	26.72615
624.075	27.97754
624.269	29.1366
624.463	25.36762
624.657	25.61227
624.851	28.08209
625.045	28.19761
625.239	28.57473
625.433	27.18809
625.627	29.69852
625.821	26.92981
626.015	26.58021
626.209	27.78324
626.403	25.89635
626.596	28.20531
626.79	28.5334
626.984	26.44674
627.178	28.3807
627.372	28.49829
627.565	28.39703
627.759	26.54022
627.953	26.64321
628.147	28.24196
628.34	28.99516
628.534	30.41042
628.728	27.48211
628.921	28.64948
629.115	28.57253
629.309	28.84799
629.502	28.92096
629.696	27.95725
629.89	27.68691
630.083	28.12784
630.277	28.265
630.47	29.61916
630.664	27.17281
630.857	25.99534
631.051	28.68813
631.244	29.06975
631.438	28.85424
631.631	27.06057
631.825	29.50799
632.018	28.37981
632.212	29.92118
632.405	29.12272
632.598	26.58917
632.792	28.05473
632.985	24.99153
633.178	27.3116
633.372	27.72919
633.565	27.25996
633.758	29.2272
633.952	26.77604
634.145	26.70389
634.338	27.63489
634.531	27.12352
634.724	27.0515
634.918	28.0475
635.111	27.5926
635.304	27.69168
635.497	30.91752
635.69	28.51581
635.883	29.55775
636.077	26.6416
636.27	28.63884
636.463	28.32526
636.656	27.87743
636.849	27.84994
637.042	28.57177
637.235	30.17876
637.428	28.86323
637.621	28.45776
637.814	29.58786
638.007	29.57863
638.2	29.79191
638.393	30.42977
638.586	26.04671
638.778	27.52206
638.971	27.79204
639.164	29.77078
639.357	28.13071
639.55	30.27893
639.743	29.0455
639.935	28.54248
640.128	31.4436
640.321	29.46565
640.514	28.19975
640.707	30.96088
640.899	29.05573
641.092	25.73613
641.285	43.32526
641.477	25.38314
641.67	31.87612
641.863	30.32478
642.055	28.35562
642.248	28.23566
642.441	27.34811
642.633	29.05292
642.826	28.93757
643.018	30.23534
643.211	31.10572
643.403	31.13819
643.596	31.62668
643.788	30.6328
643.981	27.73214
644.173	29.65786
644.366	27.84329
644.558	25.34686
644.751	29.63903
644.943	26.33167
645.135	30.23323
645.328	30.83783
645.52	28.7529
645.712	30.12952
645.905	32.51643
646.097	26.38806
646.289	28.3502
646.482	31.73307
646.674	27.13359
646.866	30.78819
647.058	29.22009
647.251	26.85995
647.443	27.08766
647.635	27.88216
647.827	26.47047
648.019	26.99785
648.211	27.88365
648.404	28.31274
648.596	31.17056
648.788	28.82942
648.98	28.69663
649.172	29.54989
649.364	29.21335
649.556	26.07294
649.748	33.01887
649.94	26.75554
650.132	29.74553
650.324	27.27989
650.516	27.99934
650.708	30.64214
650.9	26.53622
651.092	26.31237
651.284	26.55683
651.476	27.30122
651.667	29.94819
651.859	31.50137
652.051	28.45355
652.243	29.35361
652.435	28.5556
652.627	29.89929
652.818	29.94401
653.01	26.44511
653.202	27.1067
653.394	28.01668
653.585	29.50279
653.777	36.22195
653.969	31.169
654.16	30.93332
654.352	27.17614
654.544	28.26304
654.735	30.45204
654.927	29.14805
655.118	31.23155
655.31	29.83855
655.502	30.9409
655.693	28.38739
655.885	29.82503
656.076	31.53328
656.268	29.19774
656.459	32.02054
656.651	31.09489
656.842	28.30949
657.034	27.92253
657.225	30.92349
657.416	31.62034
657.608	31.59003
657.799	29.55073
657.99	31.68392
658.182	28.55922
658.373	28.4265
658.564	31.36304
658.756	30.39713
658.947	29.50579
659.138	28.52727
659.33	29.1955
659.521	28.79676
659.712	29.9379
659.903	29.80597
660.094	29.07411
660.286	27.51874
660.477	32.76917
660.668	30.63711
660.859	29.43102
661.05	27.32666
661.241	30.93457
661.432	30.11917
661.623	29.40446
661.814	28.87759
662.006	27.32507
662.197	29.95477
662.388	31.61899
662.579	30.05338
662.77	31.68127
662.96	34.56635
663.151	31.15617
663.342	26.5093
663.533	30.53202
663.724	29.73262
663.915	33.3909
664.106	29.62852
664.297	33.03818
664.488	30.70282
664.678	27.89458
664.869	31.60048
665.06	31.17057
665.251	30.0618
665.442	30.69111
665.632	27.01293
665.823	33.06291
666.014	24.5853
666.204	30.93046
666.395	32.41962
666.586	34.42586
666.776	31.67565
666.967	34.13116
667.158	29.93287
667.348	32.52001
667.539	28.17497
667.729	31.83368
667.92	28.89652
668.111	32.0592
668.301	31.51712
668.492	29.68399
668.682	30.41304
668.873	29.92408
669.063	28.03945
669.253	30.51487
669.444	33.216
669.634	30.64375
669.825	33.93399
670.015	32.94346
670.206	28.73132
670.396	34.14123
670.586	29.91119
670.777	31.10785
670.967	26.22011
671.157	29.6357
671.347	29.11658
671.538	33.43217
671.728	31.95442
671.918	34.50703
672.108	32.16875
672.299	30.00001
672.489	31.22706
672.679	29.22258
672.869	31.26224
673.059	35.39173
673.249	31.54983
673.44	28.08027
673.63	29.84594
673.82	32.61399
674.01	28.70495
674.2	31.59265
674.39	36.55393
674.58	32.05769
674.77	31.0372
674.96	29.94886
675.15	39.39017
675.34	33.17268
675.53	30.78778
675.72	29.91786
675.91	27.14188
676.099	34.94349
676.289	35.78254
676.479	33.5261
676.669	30.08437
676.859	31.68365
677.049	29.64519
677.238	30.84567
677.428	34.65234
677.618	32.48125
677.808	35.61767
677.997	32.52566
678.187	28.93401
678.377	31.29829
678.567	30.1291
678.756	30.57821
678.946	31.5895
679.136	28.71227
679.325	30.41705
679.515	29.92834
679.704	29.12024
679.894	33.80688
680.084	32.86955
680.273	33.89643
680.463	30.49729
680.652	30.21698
680.842	32.14809
681.031	33.73978
681.221	30.20414
681.41	33.40233
681.6	31.79806
681.789	33.31383
681.978	34.62754
682.168	32.90035
682.357	32.4976
682.547	32.89644
682.736	31.93384
682.925	34.71862
683.115	34.70864
683.304	33.97875
683.493	32.33643
683.682	32.86783
683.872	32.88488
684.061	34.7235
684.25	33.18645
684.439	37.21273
684.629	34.02113
684.818	40.27691
685.007	32.17415
685.196	31.49623
685.385	36.51521
685.574	32.94695
685.763	33.65493
685.952	32.94142
686.142	29.80034
686.331	36.19261
686.52	28.96213
686.709	37.96715
686.898	36.89933
687.087	34.3747
687.276	36.93497
687.465	35.39861
687.654	32.49776
687.842	36.29861
688.031	30.17164
688.22	36.28069
688.409	33.81652
688.598	33.59011
688.787	39.88371
688.976	33.71682
689.165	38.07534
689.353	32.68582
689.542	34.0416
689.731	35.56306
689.92	38.87637
690.108	34.72808
690.297	32.43315
690.486	33.4132
690.675	35.05152
690.863	38.28312
691.052	37.34734
691.241	34.48233
691.429	34.24206
691.618	37.32252
691.806	30.63825
691.995	32.62024
692.184	33.40531
692.372	32.72728
692.561	34.27033
692.749	34.24092
692.938	42.82629
693.126	34.98033
693.315	33.15047
693.503	36.13543
693.692	36.8468
693.88	36.41272
694.068	39.36369
694.257	34.47165
694.445	35.99767
694.634	28.78696
694.822	35.97005
695.01	36.77059
695.199	39.73682
695.387	37.73553
695.575	37.56059
695.763	34.00196
695.952	33.01112
696.14	30.09511
696.328	32.94194
696.516	34.29609
696.705	35.63357
696.893	35.14034
697.081	29.94673
697.269	37.03778
697.457	31.75365
697.645	31.55545
697.833	36.48435
698.021	32.43736
698.21	33.69656
698.398	34.04173
698.586	32.00881
698.774	31.07828
698.962	34.43202
699.15	32.48932
699.338	30.60568
699.526	36.30701
699.714	32.97186
699.901	32.97853
700.089	36.68562
700.277	32.77469
700.465	34.49001
700.653	36.38835
700.841	35.49153
701.029	32.71948
701.217	39.02543
701.404	34.97245
701.592	39.76081
701.78	41.25406
701.968	34.79741
702.155	34.29497
702.343	31.24088
702.531	38.39654
702.718	35.68187
702.906	33.44917
703.094	33.52963
703.281	38.5408
703.469	35.21028
703.657	37.98849
703.844	44.85477
704.032	41.69156
704.219	33.83663
704.407	36.47167
704.595	40.18201
704.782	36.85848
704.97	35.62745
705.157	35.47386
705.345	42.51747
705.532	48.45497
705.719	40.39295
705.907	42.97241
706.094	39.61091
706.282	45.95498
706.469	39.88267
706.656	41.18579
706.844	40.0325
707.031	45.18935
707.218	42.92536
707.406	47.45028
707.593	44.59321
707.78	44.65535
707.968	42.81743
708.155	40.99585
708.342	44.90732
708.529	45.29276
708.716	44.84884
708.904	47.86969
709.091	45.14406
709.278	39.79599
709.465	50.14151
709.652	47.75155
709.839	46.28905
710.026	41.98564
710.213	36.95421
710.4	42.38715
710.587	43.5702
710.774	45.87783
710.961	44.95567
711.148	42.87153
711.335	45.08873
711.522	41.46563
711.709	43.76496
711.896	49.24302
712.083	45.54201
712.27	39.35907
712.457	43.42562
712.644	37.96714
712.831	49.55602
713.017	43.13012
713.204	44.36082
713.391	39.64962
713.578	45.00864
713.765	46.35802
713.951	42.41362
714.138	52.18421
714.325	41.84539
714.512	40.2894
714.698	36.27903
714.885	45.04789
715.072	39.50404
715.258	39.45447
715.445	36.74381
715.631	43.03802
715.818	30.35933
716.005	36.65004
716.191	41.11877
716.378	37.26003
716.564	41.94745
716.751	34.85416
716.937	37.07265
717.124	41.79857
717.31	34.83461
717.497	45.73238
717.683	35.61585
717.869	46.46296
718.056	36.50813
718.242	40.05958
718.429	36.8247
718.615	34.45321
718.801	37.82749
718.988	42.41894
719.174	39.86673
719.36	36.73108
719.547	43.42893
719.733	38.85315
719.919	39.12841
720.105	40.6621
720.291	38.55124
720.478	39.6265
720.664	38.37751
720.85	35.89302
721.036	49.16956
721.222	45.8984
721.408	38.722
721.595	46.11867
721.781	44.85077
721.967	42.43963
722.153	45.66328
722.339	41.71512
722.525	39.92076
722.711	34.48529
722.897	34.02743
723.083	36.98905
723.269	43.05432
723.455	50.6628
723.641	57.05812
723.827	40.06024
724.012	40.52592
724.198	38.64077
724.384	45.89523
724.57	40.83742
724.756	33.48707
724.942	31.33045
725.127	44.51272
725.313	45.20739
725.499	43.48125
725.685	48.36543
725.87	41.32406
726.056	35.66147
726.242	45.90223
726.428	32.13638
726.613	43.48834
726.799	37.89517
726.985	35.66917
727.17	32.26335
727.356	48.15908
727.541	35.65181
727.727	39.45998
727.913	43.02134
728.098	38.07227
728.284	42.25901
728.469	34.76287
728.655	36.821
728.84	44.62435
729.026	44.10084
729.211	42.87461
729.397	42.16303
729.582	43.84044
729.767	40.24185
729.953	41.53654
730.138	45.5876
730.323	31.36006
730.509	36.04409
730.694	48.91189
730.879	43.56464
731.065	41.23682
731.25	50.90897
731.435	42.98627
731.621	33.84173
731.806	38.00523
731.991	40.35607
732.176	34.12907
732.361	47.92756
732.547	42.72364
732.732	34.05064
732.917	51.01954
733.102	35.98778
733.287	37.65364
733.472	40.50156
733.657	40.83592
733.842	33.78283
734.027	37.98207
734.212	39.98951
734.397	37.23424
734.582	40.60554
734.767	45.31739
734.952	47.60125
735.137	29.50919
735.322	47.10957
735.507	43.2446
735.692	41.45722
735.877	50.51641
736.062	49.24941
736.247	43.51466
736.431	40.02713
736.616	45.62827
736.801	41.40858
736.986	40.54048
737.171	37.69234
737.355	35.03695
737.54	46.78592
737.725	41.28376
737.909	55.35771
738.094	38.26612
738.279	44.83945
738.463	38.6671
738.648	44.19976
738.833	43.93797
739.017	50.78178
739.202	39.82276
739.386	39.32929
739.571	35.5007
739.756	44.83089
739.94	40.89753
740.125	43.0343
740.309	37.45694
740.494	45.14064
740.678	42.17429
740.863	43.36357
741.047	42.58489
741.231	48.99609
741.416	37.77444
741.6	49.43981
741.785	37.9584
741.969	46.09152
742.153	48.99312
742.338	32.01626
742.522	41.45217
742.706	45.66273
742.89	34.85496
743.075	42.32047
743.259	48.02096
743.443	47.02871
743.627	48.43942
743.812	54.00139
743.996	32.75081
744.18	38.98671
744.364	40.78257
744.548	55.49197
744.732	40.32456
744.916	46.90785
745.1	44.9799
745.285	40.95743
745.469	44.83083
745.653	51.21562
745.837	34.83521
746.021	56.00091
746.205	49.57826
746.389	43.019
746.573	41.61418
746.757	51.48491
746.94	41.22131
747.124	48.27968
747.308	35.72976
747.492	49.4992
747.676	37.37002
747.86	58.86132
748.044	39.83173
748.227	32.82137
748.411	64.80766
748.595	41.81302
748.779	37.34259
748.963	44.84075
749.146	42.97574
749.33	37.54167
749.514	36.92627
749.697	47.87765
749.881	37.80279
750.065	36.84212
750.248	43.87929
750.432	56.71514
750.616	42.78106
750.799	35.69473
750.983	57.17181
751.166	55.65375
751.35	34.3982
751.533	48.6318
751.717	51.78643
751.9	51.31974
752.084	40.69892
752.267	37.92622
752.451	38.45959
752.634	43.69627
752.818	47.04244
753.001	48.19132
753.184	50.06284
753.368	45.79431
753.551	24.73694
753.734	38.68572
753.918	56.97289
754.101	38.62404
754.284	47.27204
754.467	40.20732
754.651	38.85843
754.834	36.47892
755.017	49.00775
755.2	50.35135
755.384	37.24121
755.567	47.95798
755.75	47.9167
755.933	40.80411
756.116	48.15654
756.299	39.25976
756.482	37.52091
756.665	46.47355
756.848	41.44842
757.032	44.3451
757.215	34.3697
757.398	36.89179
757.581	38.33503
757.764	61.2087
757.947	41.85686
758.129	48.556
758.312	26.47193
758.495	41.66135
758.678	42.70767
758.861	40.69718
759.044	55.60023
759.227	36.71613
759.41	38.11849
759.592	48.40592
759.775	40.99606
759.958	49.34755
760.141	36.31661
760.324	60.26052
760.506	52.43064
760.689	48.52697
760.872	57.7483
761.054	45.83794
761.237	42.61162
761.42	42.97457
761.602	48.91896
761.785	45.57507
761.968	51.52297
762.15	55.40976
762.333	42.64389
762.515	46.43161
762.698	41.53201
762.88	50.73428
763.063	45.52715
763.245	50.88963
763.428	37.7758
763.61	41.14717
763.793	36.89471
763.975	46.22957
764.158	42.30854
764.34	40.39783
764.522	38.86823
764.705	43.96233
764.887	52.75987
765.069	34.55817
765.252	47.17022
765.434	47.57794
765.616	44.4561
765.799	39.2987
765.981	48.61402
766.163	40.26749
766.345	52.04363
766.528	38.89045
766.71	31.73463
766.892	44.7344
767.074	52.14007
767.256	41.52616
767.438	55.6814
767.62	44.27832
767.802	60.21849
767.985	47.91424
768.167	57.99962
768.349	42.15531
768.531	48.43997
768.713	46.55656
768.895	48.71805
769.077	47.57429
769.259	63.60278
769.441	79.57271
769.623	49.58392
769.804	56.24915
769.986	52.48178
770.168	62.26154
770.35	70.9368
770.532	57.61802
770.714	61.16641
770.896	59.88201
771.077	37.0354
771.259	64.18979
771.441	55.97497
771.623	68.46549
771.804	76.59505
771.986	38.16541
772.168	49.31427
772.35	61.81506
772.531	78.03193
772.713	55.89128
772.894	68.66132
773.076	56.00324
773.258	50.42668
773.439	70.02227
773.621	76.40161
773.802	45.38382
773.984	48.80963
774.166	58.44893
774.347	71.28393
774.529	67.60329
774.71	38.06673
774.891	54.48164
775.073	51.64368
775.254	69.35519
775.436	48.96188
775.617	81.94492
775.799	49.70652
775.98	68.86281
776.161	74.84032
776.343	76.62135
776.524	55.66497
776.705	51.38078
776.886	36.86046
777.068	59.66173
777.249	107.05673
777.43	78.53911
777.611	43.0544
777.793	52.48875
777.974	76.84193
778.155	48.95719
778.336	46.43003
778.517	86.05768
778.698	47.37892
778.879	37.6607
779.061	28.62249
779.242	61.55261
779.423	63.14981
779.604	49.86373
779.785	53.85769
779.966	58.46362
780.147	70.25106
780.328	67.03233
780.509	88.77322
780.69	69.0274
780.871	49.50323
781.051	41.26968
781.232	58.04337
781.413	56.75392
781.594	54.19873
781.775	52.2817
781.956	47.89074
782.137	35.46151
782.317	50.1984
782.498	56.92247
782.679	57.94825
782.86	59.91135
783.04	49.39654
783.221	58.03122
783.402	78.7005
783.583	56.90208
783.763	67.65071
783.944	49.45251
784.124	41.60506
784.305	79.28562
784.486	63.68896
784.666	55.39664
784.847	41.61202
785.027	100.2657
785.208	51.18393
785.388	47.26593
785.569	50.1158
785.749	55.95045
785.93	49.95128
786.11	41.43924
786.291	64.7234
786.471	57.94258
786.652	65.62839
786.832	54.28219
787.012	57.66253
787.193	44.12878
787.373	57.98688
787.553	50.2769
787.734	59.7567
787.914	53.28493
788.094	68.82504
788.275	59.60405
788.455	52.28939
788.635	43.12489
788.815	59.6727
788.995	44.46
789.176	38.89932
789.356	47.72445
789.536	53.58902
789.716	62.20494
789.896	46.94289
790.076	49.8743
790.256	59.54122
790.436	32.88427
790.616	46.185
790.796	58.55071
790.976	52.70389
791.156	46.92702
791.336	63.58611
791.516	60.13871
791.696	53.71683
791.876	41.295
792.056	59.54553
792.236	67.71891
792.416	64.71954
792.596	60.47872
792.776	60.61552
792.956	64.85292
793.135	78.7154
793.315	43.97243
793.495	68.65309
793.675	65.55723
793.854	66.01958
794.034	66.75539
794.214	45.26736
794.394	66.19846
794.573	71.51348
794.753	57.84772
794.933	46.0487
795.112	60.06141
795.292	68.9867
795.472	79.29755
795.651	41.72607
795.831	54.79848
796.01	53.9499
796.19	52.97892
796.369	56.66592
796.549	61.28995
796.728	53.62666
796.908	40.42372
797.087	44.40375
797.267	52.30939
797.446	43.85669
797.626	61.93153
797.805	61.16476
797.984	48.57146
798.164	66.16863
798.343	47.33764
798.522	58.5919
798.702	58.77465
798.881	42.36411
799.06	54.68817
799.239	37.06992
799.419	45.44003
799.598	79.01735
799.777	60.94743
799.956	71.1155
800.136	53.372
800.315	47.4015
800.494	60.7744
800.673	69.71265
800.852	64.71725
801.031	68.96296
801.21	63.55652
801.389	53.22917
801.568	58.19971
801.747	81.18519
801.926	57.38464
802.105	74.52611
802.284	50.95115
802.463	77.00053
802.642	61.21503
802.821	59.78853
803	73.45148
803.179	68.06209
803.358	71.71517
803.537	49.09196
803.716	56.00961
803.895	47.77925
804.073	56.18085
804.252	46.54558
804.431	61.39432
804.61	55.34735
804.789	65.64058
804.967	50.32449
805.146	51.42153
805.325	84.58006
805.503	61.16864
805.682	42.22494
805.861	101.20695
806.039	74.30076
806.218	53.0601
806.397	58.89487
806.575	55.61418
806.754	60.94512
806.932	46.67612
807.111	70.35117
807.289	65.77247
807.468	57.73573
807.646	69.04931
807.825	66.32377
808.003	56.88298
808.182	67.80769
808.36	58.90611
808.539	49.00952
808.717	76.49775
808.895	50.38357
809.074	61.46319
809.252	57.93453
809.43	64.31965
809.609	71.77203
809.787	80.95447
809.965	56.37763
810.144	57.08562
810.322	57.71879
810.5	62.75106
810.678	52.91013
810.856	87.65385
811.035	71.1464
811.213	65.18594
811.391	78.29107
811.569	62.67618
811.747	109.93387
811.925	74.43686
812.103	49.09516
812.281	58.99081
812.459	82.79687
812.637	83.34035
812.816	69.4885
812.994	89.61353
813.171	80.0043
813.349	64.29425
813.527	72.99328
813.705	80.26303
813.883	98.98817
814.061	71.53153
814.239	86.17146
814.417	92.15281
814.595	66.60783
814.773	63.79572
814.95	62.84634
815.128	66.20574
815.306	63.91877
815.484	60.02686
815.662	49.51052
815.839	46.03318
816.017	52.19594
816.195	75.93603
816.372	53.88039
816.55	70.72411
816.728	83.67461
816.905	57.84019
817.083	80.7594
817.261	59.03884
817.438	105.50997
817.616	84.73201
817.793	53.2915
817.971	72.7491
818.148	72.33791
818.326	78.26763
818.503	65.02329
818.681	84.98047
818.858	58.52781
819.036	61.17715
819.213	63.56139
819.391	52.56165
819.568	51.29675
819.745	47.32312
819.923	71.39647
820.1	57.06877
820.277	51.14512
820.455	57.23832
820.632	58.21076
820.809	61.39077
820.986	47.11066
821.164	42.87729
821.341	41.51144
821.518	51.18634
821.695	43.82239
821.872	42.40139
822.05	39.32024
822.227	36.39111
822.404	37.03312
822.581	39.85119
822.758	37.99416
822.935	37.46066
823.112	39.52289
823.289	37.16095
823.466	40.09367
823.643	39.45815
823.82	42.68131
823.997	41.03391
824.174	43.83898
824.351	50.42418
824.528	48.71345
824.705	46.72162
824.882	48.93692
825.059	55.4938
825.236	46.60028
825.412	47.36302
825.589	51.86321
825.766	63.26453
825.943	48.05945
826.12	52.53695
826.296	44.06238
826.473	49.47943
826.65	49.61313
826.827	54.75144
827.003	43.87556
827.18	46.25818
827.357	50.0392
827.533	45.60215
827.71	35.76848
827.887	43.09764
828.063	45.75295
828.24	42.11443
828.416	48.48479
828.593	44.31886
828.769	54.36853
828.946	53.94241
829.122	56.02669
829.299	54.60736
829.475	42.98719
829.652	54.59841
829.828	73.62756
830.005	54.10801
830.181	67.54643
830.357	55.61792
830.534	69.73262
830.71	57.61834
830.886	68.33369
831.063	67.74492
831.239	78.0728
831.415	49.10489
831.592	79.19792
831.768	58.01385
831.944	54.05117
832.12	85.10532
832.296	80.17779
832.473	69.1416
832.649	53.35364
832.825	69.67269
833.001	48.99567
833.177	64.52155
833.353	59.20312
833.529	44.31262
833.705	57.13218
833.881	44.08807
834.058	44.04865
834.234	47.09845
834.41	45.93787
834.586	40.60278
834.761	45.18928
834.937	47.26438
835.113	48.54332
835.289	45.22846
835.465	48.66011
835.641	45.64418
835.817	49.47987
835.993	68.71248
836.169	46.46542
836.344	58.98145
836.52	63.9881
836.696	60.56791
836.872	53.79242
837.048	109.74689
837.223	55.3677
837.399	89.06845
837.575	70.53316
837.75	70.83728
837.926	91.91312
838.102	121.07987
838.277	102.95444
838.453	130.07695
838.628	134.89321
838.804	65.49386
838.98	117.04809
839.155	70.7393
839.331	89.86341
839.506	68.65138
839.682	67.93748
839.857	92.05849
840.033	101.24379
840.208	58.14613
840.384	42.09402
840.559	60.18501
840.734	78.78181
840.91	94.52049
841.085	65.70734
841.26	67.68955
841.436	65.14522
841.611	63.24175
841.786	83.38178
841.962	105.66058
842.137	77.26167
842.312	56.37891
842.487	69.45485
842.663	59.91298
842.838	68.6449
843.013	172.97039
843.188	90.57595
843.363	101.58159
843.538	145.34571
843.714	150.53296
843.889	149.31328
844.064	162.08417
844.239	134.07857
844.414	150.1193
844.589	103.68411
844.764	185.00555
844.939	181.40004
845.114	196.59119
845.289	184.02744
845.464	245.9975
845.639	173.81304
845.814	98.40613
845.989	113.78354
846.163	129.84875
846.338	136.30593
846.513	185.35531
846.688	121.8161
846.863	123.73606
847.038	117.93109
847.212	130.91701
847.387	134.64758
847.562	144.48799
847.737	170.95933
847.911	80.5812
848.086	95.60611
848.261	275.74607
848.435	128.9382
848.61	177.93916
848.785	100.66122
848.959	175.167
849.134	238.91901
849.308	237.62968
849.483	140.74722
849.658	211.04048
849.832	120.54026
850.007	112.52667
850.181	271.72969
850.356	112.11419
850.53	256.13544
850.705	93.92318
850.879	67.00648
851.053	131.01532
851.228	121.93348
851.402	153.46133
851.577	183.53101
851.751	209.14517
851.925	145.92678
852.099	78.14071
852.274	108.08675
852.448	131.0255
852.622	145.9762
852.797	138.49778
852.971	131.56718
853.145	141.09668
853.319	367.0883
853.493	195.72523
853.668	116.04122
853.842	235.88023
854.016	195.14608
854.19	228.20212
854.364	149.31544
854.538	152.58295
854.712	204.17399
854.886	133.44877
855.06	130.66945
855.234	65.55333
855.408	222.66344
855.582	183.85367
855.756	181.81527
855.93	233.89416
856.104	161.84879
856.278	191.11696
856.452	146.41562
856.626	180.9859
856.8	284.28676
856.973	167.89864
857.147	158.31171
857.321	163.96431
857.495	199.74715
857.669	137.03714
857.842	123.28658
858.016	193.5382
858.19	105.55224
858.364	303.47186
858.537	131.95673
858.711	144.90505
858.885	139.7113
859.058	116.45514
859.232	74.97934
859.405	88.8466
859.579	185.78669
859.753	161.4958
859.926	119.66851
860.1	88.14765
860.273	139.88545
860.447	228.0216
860.62	128.01579
860.794	263.31516
860.967	165.50105
861.141	202.69774
861.314	279.66866
861.487	173.34407
861.661	220.57018
861.834	216.89219
862.008	194.02474
862.181	145.61919
862.354	148.51762
862.528	163.17763
862.701	116.90977
862.874	90.11181
863.047	134.45492
863.221	128.14855
863.394	74.01173
863.567	228.40501
863.74	68.17189
863.913	187.98893
864.087	158.606
864.26	194.72986
864.433	150.47031
864.606	239.98391
864.779	153.98601
864.952	85.83521
865.125	121.94583
865.298	139.75777
865.471	147.9016
865.644	273.84149
865.817	225.08316
865.99	192.61981
866.163	217.79573
866.336	125.86906
866.509	145.00622
866.682	131.64496
866.855	210.21832
867.028	103.82029
867.2	190.41222
867.373	75.19008
867.546	157.76542
867.719	277.84616
867.892	185.26412
868.064	106.02382
868.237	173.40286
868.41	156.39357
868.583	98.35654
868.755	96.00072
868.928	151.64657
869.101	288.56684
869.273	208.60146
869.446	182.49447
869.619	211.217
869.791	141.0863
869.964	202.54204
870.136	198.95154
870.309	159.51964
870.481	154.13239
870.654	90.45215
870.826	161.45509
870.999	126.11714
871.171	191.72862
871.344	123.71618
871.516	150.36218
871.689	113.11902
871.861	163.38415
872.033	116.07457
872.206	135.54462
872.378	204.25279
872.55	134.6646
872.723	100.38902
872.895	140.63497
873.067	208.64216
873.24	225.53397
873.412	123.8554
873.584	137.43968
873.756	128.81468
873.928	168.85004
874.101	170.31463
874.273	180.45574
874.445	78.78828
874.617	99.23211
874.789	163.77992
874.961	133.23308
875.133	188.10424
875.305	155.65035
875.477	108.04999
875.649	92.64862
875.821	111.6776
875.993	239.88017
876.165	107.31091
876.337	169.05646
876.509	137.20123
876.681	165.80245
876.853	160.20977
877.025	155.99229
877.197	114.90785
877.369	113.01026
877.541	195.96444
877.712	71.44309
877.884	106.8938
878.056	184.55193
878.228	105.92367
878.4	174.38901
878.571	108.8478
878.743	79.24951
878.915	164.42169
879.086	106.22996
879.258	123.10797
879.43	114.958
879.601	100.60986
879.773	107.28536
879.945	42.68796
880.116	56.38087
880.288	44.21545
880.459	46.50471
880.631	40.78755
880.802	45.24418
880.974	43.78624
881.145	36.83827
881.317	43.09822
881.488	37.83196
881.66	40.74048
881.831	38.57153
882.002	45.94262
882.174	40.01649
882.345	44.82293
882.517	35.18534
882.688	48.33374
882.859	44.86521
883.03	58.51385
883.202	56.61832
883.373	52.39527
883.544	51.64453
883.715	74.22957
883.887	64.65851
884.058	60.84394
884.229	75.43982
884.4	77.42084
884.571	81.85377
884.742	74.9084
884.914	80.78781
885.085	105.75797
885.256	122.42667
885.427	103.72372
885.598	121.4762
885.769	125.44181
885.94	122.16748
886.111	90.43457
886.282	138.36078
886.453	116.35803
886.624	90.0961
886.795	139.49014
886.966	120.46361
887.136	145.60865
887.307	107.95377
887.478	181.00356
887.649	161.0718
887.82	161.73506
887.991	137.75035
888.161	180.96421
888.332	174.86183
888.503	97.62155
888.674	222.57246
888.844	234.68594
889.015	192.50363
889.186	99.19662
889.356	219.24857
889.527	93.54727
889.698	371.8491
889.868	132.44628
890.039	169.4066
890.209	150.31337
890.38	194.22338
890.551	166.59702
890.721	234.08111
890.892	194.07009
891.062	136.79845
891.233	174.54314
891.403	135.82429
891.574	111.46143
891.744	142.65307
891.914	185.40926
892.085	158.41153
892.255	74.65023
892.425	224.79737
892.596	186.61258
892.766	176.63787
892.936	231.30031
893.107	189.61791
893.277	117.83425
893.447	92.2988
893.618	75.09084
893.788	130.09163
893.958	81.15508
894.128	84.57328
894.298	88.64234
894.468	118.93675
894.639	61.27376
894.809	51.04575
894.979	68.24496
895.149	78.12936
895.319	66.96813
895.489	87.43101
895.659	100.18965
895.829	74.42496
895.999	79.63735
896.169	67.25445
896.339	75.24651
896.509	131.78185
896.679	147.93861
896.849	144.51052
897.019	192.85395
897.189	150.8469
897.358	137.65436
897.528	193.01915
897.698	81.4068
897.868	181.32497
898.038	283.87588
898.208	269.16679
898.377	105.7811
898.547	278.77017
898.717	441.29556
898.886	179.21009
899.056	271.78402
899.226	408.63201
899.395	263.46513
899.565	311.46177
899.735	211.66343
899.904	332.30978
900.074	285.79404
900.244	157.27832
900.413	526.30452
900.583	142.13044
900.752	193.93782
900.922	302.41533
901.091	43.71252
901.261	283.45745
901.43	261.22901
901.599	270.74387
901.769	550.35031
901.938	307.01733
902.108	297.881
902.277	382.42801
902.446	128.50641
902.616	131.67094
902.785	187.56565
902.954	297.64875
903.124	202.36662
903.293	160.71724
903.462	103.72184
903.631	129.90381
903.801	103.24609
903.97	63.41981
904.139	95.28518
904.308	75.56021
904.477	67.35849
904.646	48.47751
904.816	64.00511
904.985	84.54416
905.154	119.04475
