Data from WindowProjectSample_Transmission__64__00064__07940449024402014.txt Node

Date: Mon May 05 18:31:16 EDT 2025
User: jessi
Spectrometer: SR400872
Trigger mode: 0
Integration Time (sec): 5.000010E-1
Scans to average: 20
Electric dark correction enabled: true
Nonlinearity correction enabled: true
Boxcar width: 0
XAxis mode: Wavelengths
Number of Pixels in Spectrum: 3648
>>>>>Begin Spectral Data<<<<<
184.909	20663.72448
185.132	-5258.19704
185.355	-3061.02528
185.578	-17919.17351
185.801	1790.42669
186.024	10440.94774
186.247	-1619.84018
186.47	1455.51145
186.693	328.99331
186.916	352.51277
187.139	-3814.67062
187.362	3412.51016
187.585	4099.27757
187.808	3301.45582
188.031	37.32235
188.254	-54501.42648
188.476	-778.05796
188.699	6381.7939
188.922	728.6733
189.145	-15354.61099
189.368	-706.40587
189.591	-1329.06965
189.813	2937.29795
190.036	-54281.08615
190.259	-901.88707
190.482	-4185.35482
190.705	6911.91719
190.927	-2523.65995
191.15	13530.59767
191.373	3284.22372
191.595	-8584.04915
191.818	-4204.79579
192.041	-6386.82294
192.263	-3322.91365
192.486	-947.89021
192.709	-4038.12019
192.931	7747.92226
193.154	-28274.84582
193.377	-2794.63073
193.599	-2449.74333
193.822	-9459.20935
194.044	-1984.10583
194.267	1034.17252
194.489	276.80178
194.712	-44094.55495
194.934	-32243.87152
195.157	1234.04346
195.379	1388.52428
195.602	-6993.64581
195.824	-1389.55746
196.047	-9105.46609
196.269	2674.84873
196.492	-6776.5523
196.714	26296.64556
196.936	-8479.16535
197.159	-1180.37004
197.381	1070.19697
197.604	480.8228
197.826	11917.63725
198.048	-10611.5972
198.271	-2844.24728
198.493	7776.32589
198.715	2267.65154
198.938	-501.00417
199.16	6644.86758
199.382	-102104.10445
199.604	2849.54198
199.827	-1043.09615
200.049	-2956.80772
200.271	13518.64624
200.493	1182.62394
200.715	-36051.58353
200.938	-6258.77606
201.16	-4231.32953
201.382	19899.20101
201.604	2340.45522
201.826	2250.61953
202.048	-1999.54813
202.27	-1908.35822
202.492	-36503.27691
202.715	2833.9748
202.937	-4413.49639
203.159	-6298.14316
203.381	1539.08244
203.603	6562.13037
203.825	6767.86265
204.047	2279.58464
204.269	-2842.51727
204.491	2347.46022
204.713	5637.72228
204.935	-490217.03531
205.156	1197.83766
205.378	-3149.02523
205.6	1644.34865
205.822	154028.68716
206.044	-1006.83658
206.266	1583.19872
206.488	4829.10839
206.71	-5219.14007
206.932	1045.43719
207.153	12204.19197
207.375	-6568.68846
207.597	-38228.69804
207.819	-2822.77792
208.041	2436.58414
208.262	435.69984
208.484	721.11464
208.706	-799.96779
208.927	-811.0388
209.149	552.77182
209.371	-2976.7044
209.593	-236.32329
209.814	-788.11208
210.036	583.24826
210.258	-674.13118
210.479	1652.77327
210.701	1657.30454
210.922	3430.82568
211.144	-3672.58388
211.366	2116.74291
211.587	6931.80899
211.809	-8225.46427
212.03	2391.47585
212.252	449.2801
212.473	2053.60927
212.695	-6357.29901
212.916	2839.63373
213.138	-662.94082
213.359	3780.52109
213.581	4976.47113
213.802	-889.42414
214.024	1107.81925
214.245	2180.93285
214.466	2821.35521
214.688	-3086.46089
214.909	-1170.07009
215.131	-1728.15629
215.352	-3111.58829
215.573	14651.70219
215.795	4981.15949
216.016	5347.96224
216.237	863.93473
216.459	3488.87373
216.68	1822.16157
216.901	5142.29071
217.122	-3066.37247
217.344	-11739.53864
217.565	3408.7974
217.786	9042.99196
218.007	15214.15653
218.228	-667.37386
218.45	5800.45885
218.671	782.28261
218.892	36993.63771
219.113	1570.34327
219.334	-273.18881
219.555	9234.0503
219.776	3187.133
219.997	23153.57774
220.219	2735.59453
220.44	-11466.64402
220.661	481.5126
220.882	1524.55687
221.103	-1179.72029
221.324	2120.56764
221.545	2274.0063
221.766	-9126.81453
221.987	955.41516
222.208	1743.17202
222.429	4319.16056
222.65	165.222
222.87	17150.71819
223.091	752.50024
223.312	572.87993
223.533	1357.01898
223.754	1466.51564
223.975	1367.92718
224.196	2003.15808
224.417	1315.07401
224.637	588.68814
224.858	80.07904
225.079	1113.83562
225.3	690.17798
225.521	3774.34161
225.741	465.83306
225.962	507.29545
226.183	145.13273
226.404	662.62398
226.624	443.63896
226.845	654.73299
227.066	409.57987
227.286	250.86429
227.507	138.26473
227.728	115.65736
227.948	247.93929
228.169	71.90128
228.389	82.64647
228.61	45.83111
228.831	63.65198
229.051	1.22458
229.272	38.10071
229.492	57.91621
229.713	11.85316
229.933	37.11061
230.154	32.17487
230.374	53.73313
230.595	38.14358
230.815	26.00754
231.036	39.69677
231.256	-8.46045
231.477	67.87377
231.697	35.39106
231.917	40.14791
232.138	55.39701
232.358	113.10214
232.579	103.58493
232.799	22.0053
233.019	97.6538
233.24	113.28171
233.46	42.36981
233.68	63.01235
233.901	42.25181
234.121	27.24613
234.341	10.84809
234.561	-4.87825
234.782	18.5479
235.002	66.49836
235.222	-4.42818
235.442	63.43436
235.662	33.18349
235.883	61.39253
236.103	48.4971
236.323	35.6305
236.543	27.02584
236.763	39.81979
236.983	43.02062
237.203	40.69547
237.423	59.8581
237.643	88.49727
237.864	72.65426
238.084	19.72252
238.304	27.08335
238.524	46.88894
238.744	39.58403
238.964	74.63482
239.184	60.46252
239.404	64.39885
239.624	36.64721
239.843	58.82491
240.063	36.1751
240.283	21.60035
240.503	26.39588
240.723	25.01771
240.943	14.47923
241.163	20.49623
241.383	14.50687
241.603	6.80723
241.822	10.14851
242.042	6.24741
242.262	8.18025
242.482	9.27478
242.702	10.25664
242.921	2.6592
243.141	6.87139
243.361	6.34668
243.581	9.43568
243.8	7.34702
244.02	5.02876
244.24	9.6941
244.459	9.06661
244.679	17.80611
244.899	10.98069
245.118	12.73257
245.338	11.79235
245.558	13.43607
245.777	8.60723
245.997	10.67417
246.216	10.28498
246.436	6.52582
246.655	4.63921
246.875	3.02014
247.094	6.1128
247.314	2.19779
247.533	3.61853
247.753	4.26278
247.972	3.42424
248.192	1.23025
248.411	1.57732
248.631	3.62071
248.85	4.87017
249.07	3.76443
249.289	5.87218
249.508	4.81801
249.728	6.96906
249.947	6.82923
250.166	8.48956
250.386	4.38493
250.605	6.89689
250.824	11.08427
251.044	7.97865
251.263	28.44479
251.482	15.0864
251.701	11.43693
251.921	-0.503
252.14	3.44472
252.359	3.87308
252.578	10.22273
252.798	3.31031
253.017	8.96606
253.236	4.14099
253.455	5.95472
253.674	10.39111
253.893	5.06616
254.112	8.17213
254.331	11.62943
254.551	8.52758
254.77	3.32386
254.989	12.99939
255.208	9.64586
255.427	14.62074
255.646	11.84392
255.865	21.6043
256.084	9.11002
256.303	10.71008
256.522	13.16753
256.741	3.43773
256.96	3.45777
257.179	7.57939
257.397	10.89914
257.616	6.12855
257.835	5.94941
258.054	15.09011
258.273	10.35949
258.492	11.20124
258.711	6.53839
258.93	3.1911
259.148	4.93707
259.367	4.65192
259.586	5.66392
259.805	2.30141
260.023	5.28208
260.242	3.80895
260.461	2.83225
260.68	1.46031
260.898	4.31399
261.117	1.33672
261.336	0.86586
261.554	3.62694
261.773	3.50689
261.992	0.73973
262.21	3.50288
262.429	3.49535
262.648	7.27483
262.866	8.03573
263.085	5.52545
263.303	4.80343
263.522	8.67153
263.74	8.72866
263.959	15.43618
264.178	7.20029
264.396	6.38901
264.615	4.42408
264.833	10.34881
265.051	8.92517
265.27	10.84163
265.488	10.98668
265.707	6.26915
265.925	10.69505
266.144	4.81438
266.362	5.43785
266.58	5.70526
266.799	5.05068
267.017	6.15577
267.235	5.27809
267.454	3.24943
267.672	2.02227
267.89	3.97817
268.109	4.39045
268.327	4.20297
268.545	1.0015
268.763	3.82522
268.982	1.59541
269.2	4.34393
269.418	3.18941
269.636	1.90173
269.854	4.71508
270.073	3.23354
270.291	2.03428
270.509	1.79711
270.727	4.14074
270.945	7.36341
271.163	7.0022
271.381	1.34112
271.599	3.1232
271.817	5.29904
272.036	1.71879
272.254	3.02378
272.472	2.48644
272.69	2.56781
272.908	2.4233
273.126	4.55418
273.344	5.35941
273.562	1.83277
273.779	2.60998
273.997	3.89667
274.215	4.21248
274.433	2.8692
274.651	4.47838
274.869	4.60633
275.087	2.91709
275.305	3.93118
275.523	2.37414
275.74	2.91404
275.958	5.36218
276.176	8.25993
276.394	2.5802
276.612	3.31467
276.829	3.07916
277.047	2.80717
277.265	2.90445
277.483	3.52974
277.7	4.24446
277.918	3.53447
278.136	6.36263
278.353	3.05779
278.571	1.7499
278.789	4.32484
279.006	0.9421
279.224	2.99399
279.442	5.15017
279.659	3.55876
279.877	2.39818
280.094	5.8281
280.312	1.00724
280.529	3.35286
280.747	0.93089
280.964	2.52297
281.182	5.98457
281.399	2.59913
281.617	3.79861
281.834	2.47258
282.052	1.96404
282.269	3.32768
282.487	2.4295
282.704	2.04836
282.921	2.31203
283.139	3.24267
283.356	3.98879
283.574	3.91556
283.791	1.78558
284.008	5.59486
284.226	2.96871
284.443	3.37977
284.66	4.16388
284.877	3.43643
285.095	1.99389
285.312	1.6964
285.529	0.9052
285.746	0.79096
285.964	2.05674
286.181	1.3835
286.398	1.91
286.615	2.63776
286.832	2.5757
287.05	0.55928
287.267	1.8719
287.484	1.91071
287.701	2.62511
287.918	2.7095
288.135	2.64972
288.352	1.22643
288.569	1.40136
288.786	2.38419
289.003	1.92355
289.22	3.07002
289.437	1.63037
289.654	3.01835
289.871	3.06184
290.088	2.85587
290.305	2.28211
290.522	1.81497
290.739	2.06612
290.956	3.26252
291.173	3.5551
291.39	3.44504
291.607	2.32731
291.824	1.67716
292.04	1.13556
292.257	2.86212
292.474	3.21351
292.691	2.00788
292.908	0.97289
293.125	1.77672
293.341	1.21309
293.558	4.88882
293.775	1.95113
293.992	1.91442
294.208	0.75369
294.425	1.26826
294.642	1.90962
294.858	2.72178
295.075	0.63354
295.292	1.96077
295.508	2.2378
295.725	4.14187
295.942	1.65396
296.158	1.16873
296.375	1.97446
296.591	1.60643
296.808	1.6936
297.024	2.0211
297.241	2.23222
297.458	2.42689
297.674	0.15717
297.891	1.8083
298.107	1.46077
298.323	1.08811
298.54	3.10172
298.756	1.28836
298.973	0.67637
299.189	3.08428
299.406	1.21228
299.622	2.71841
299.838	2.72842
300.055	2.6993
300.271	0.56375
300.487	1.00991
300.704	1.28365
300.92	0.79979
301.136	4.17699
301.353	2.66476
301.569	1.83272
301.785	2.25852
302.001	2.69387
302.218	2.2406
302.434	2.33448
302.65	0.71453
302.866	1.66292
303.083	4.02419
303.299	3.7891
303.515	2.07338
303.731	2.26249
303.947	0.64395
304.163	1.2663
304.379	2.18735
304.595	2.47739
304.812	1.24696
305.028	1.25132
305.244	1.75623
305.46	2.56603
305.676	2.7115
305.892	3.25015
306.108	2.23618
306.324	1.5236
306.54	3.74197
306.756	2.57944
306.972	2.48658
307.187	1.84169
307.403	3.39969
307.619	1.69043
307.835	3.17011
308.051	3.41543
308.267	0.92456
308.483	2.83277
308.699	2.455
308.914	1.9908
309.13	1.8133
309.346	0.65188
309.562	1.07311
309.778	0.75808
309.993	2.45082
310.209	2.00933
310.425	1.01807
310.641	1.79984
310.856	1.01134
311.072	0.97079
311.288	1.83563
311.503	1.97324
311.719	0.30728
311.935	0.29106
312.15	2.29492
312.366	1.86674
312.581	2.32822
312.797	1.75312
313.013	2.66805
313.228	1.2524
313.444	1.81354
313.659	1.30126
313.875	2.43712
314.09	1.66503
314.306	3.23465
314.521	2.72241
314.737	2.61667
314.952	2.04825
315.168	1.95387
315.383	2.30181
315.599	1.70028
315.814	1.58234
316.029	2.56609
316.245	0.84289
316.46	0.55266
316.675	3.08914
316.891	3.49476
317.106	4.59472
317.321	2.29198
317.537	2.5925
317.752	2.74133
317.967	2.79507
318.183	1.29796
318.398	1.60283
318.613	2.71698
318.828	3.37302
319.043	2.74988
319.259	1.85137
319.474	2.23726
319.689	3.18166
319.904	0.65119
320.119	2.80568
320.334	2.3299
320.549	1.80438
320.765	3.04184
320.98	2.32749
321.195	2.64926
321.41	1.9548
321.625	2.80097
321.84	3.9494
322.055	3.7041
322.27	1.39982
322.485	1.11456
322.7	2.43759
322.915	2.86192
323.13	1.4379
323.345	3.47449
323.56	3.15925
323.775	2.65495
323.989	2.37899
324.204	2.32278
324.419	3.1058
324.634	1.00926
324.849	1.91718
325.064	5.19218
325.279	3.00411
325.493	2.4171
325.708	2.90312
325.923	1.42394
326.138	1.57288
326.352	3.54637
326.567	3.01097
326.782	1.69429
326.997	1.54253
327.211	2.7269
327.426	2.50736
327.641	1.84798
327.855	0.74582
328.07	2.53435
328.285	3.68842
328.499	1.77432
328.714	2.3421
328.928	2.71368
329.143	1.94489
329.358	3.03536
329.572	3.10742
329.787	3.24507
330.001	4.5038
330.216	1.1687
330.43	3.90112
330.645	3.76371
330.859	2.95134
331.074	1.495
331.288	2.38002
331.503	3.41678
331.717	1.36041
331.931	2.37706
332.146	2.39829
332.36	3.87627
332.575	2.56204
332.789	2.42597
333.003	2.41371
333.218	2.6526
333.432	1.67708
333.646	3.06087
333.86	3.70263
334.075	3.62518
334.289	1.76435
334.503	1.34141
334.717	2.59282
334.932	2.55532
335.146	3.18132
335.36	1.82257
335.574	2.72817
335.788	2.6542
336.003	3.14398
336.217	2.71453
336.431	2.72995
336.645	1.70167
336.859	1.21945
337.073	2.10201
337.287	2.46317
337.501	1.15849
337.715	2.51449
337.929	3.07251
338.143	1.22991
338.357	2.16047
338.571	1.59677
338.785	2.78451
338.999	1.91593
339.213	1.80435
339.427	1.04765
339.641	3.49139
339.855	1.98529
340.069	1.78801
340.283	3.15557
340.497	3.96405
340.711	2.6075
340.924	2.27144
341.138	1.45441
341.352	1.09258
341.566	2.50051
341.78	0.91393
341.993	1.94945
342.207	1.53366
342.421	2.42469
342.635	2.07801
342.848	1.92588
343.062	0.5481
343.276	1.66752
343.49	3.96932
343.703	1.62768
343.917	3.23568
344.131	3.14207
344.344	1.67691
344.558	2.01414
344.771	1.33596
344.985	3.66196
345.199	3.59921
345.412	2.51538
345.626	2.58945
345.839	0.96754
346.053	1.27846
346.266	1.40605
346.48	2.85485
346.693	2.51558
346.907	2.50347
347.12	1.47538
347.334	2.43612
347.547	2.57247
347.76	1.93724
347.974	3.31626
348.187	2.5765
348.401	1.96738
348.614	1.71406
348.827	1.91996
349.041	2.65655
349.254	1.00137
349.467	1.94793
349.681	1.34929
349.894	1.70527
350.107	3.23332
350.32	3.82101
350.534	1.21656
350.747	1.96492
350.96	1.52692
351.173	1.68424
351.386	2.03874
351.6	1.94063
351.813	1.76871
352.026	2.12199
352.239	1.29331
352.452	2.05559
352.665	3.0921
352.878	2.25365
353.092	3.88273
353.305	2.97594
353.518	2.53124
353.731	1.55523
353.944	3.33868
354.157	1.94658
354.37	1.62781
354.583	1.39645
354.796	1.13235
355.009	3.05398
355.222	2.46537
355.435	2.32803
355.647	3.09058
355.86	1.58976
356.073	2.37432
356.286	1.87402
356.499	2.90778
356.712	2.62146
356.925	2.79676
357.138	2.8703
357.35	1.55262
357.563	2.09875
357.776	2.37492
357.989	2.07501
358.201	2.61301
358.414	2.46162
358.627	3.30027
358.84	2.15568
359.052	1.4123
359.265	1.73412
359.478	3.1593
359.69	0.42521
359.903	2.86317
360.116	3.07197
360.328	1.04457
360.541	2.96143
360.753	1.63089
360.966	1.9959
361.179	2.06785
361.391	1.95498
361.604	1.74297
361.816	1.99086
362.029	1.81898
362.241	1.71578
362.454	1.97774
362.666	1.66327
362.879	2.49047
363.091	1.99876
363.304	1.7328
363.516	2.20023
363.728	1.47088
363.941	2.70422
364.153	2.19534
364.366	0.9104
364.578	1.59177
364.79	2.5143
365.003	2.33086
365.215	1.8573
365.427	2.79137
365.639	3.04266
365.852	2.45531
366.064	4.08405
366.276	2.06359
366.488	2.70355
366.701	2.08323
366.913	2.22812
367.125	2.15379
367.337	1.77688
367.549	2.01423
367.762	2.41623
367.974	2.43324
368.186	2.00666
368.398	3.01553
368.61	2.8094
368.822	2.84659
369.034	2.33011
369.246	3.0145
369.458	4.6768
369.67	1.86122
369.882	3.82614
370.094	1.19814
370.306	3.64073
370.518	2.27214
370.73	2.0587
370.942	2.05042
371.154	2.47468
371.366	2.25386
371.578	2.80403
371.79	2.09792
372.002	3.35683
372.214	3.99868
372.425	2.56852
372.637	3.52726
372.849	2.85692
373.061	1.25876
373.273	2.90965
373.484	2.72296
373.696	3.19445
373.908	1.20809
374.12	3.47224
374.331	3.01977
374.543	2.21323
374.755	1.96636
374.967	2.78204
375.178	3.25732
375.39	2.39531
375.602	2.76757
375.813	1.65229
376.025	2.0707
376.236	2.85979
376.448	2.95762
376.66	2.47543
376.871	2.47954
377.083	3.62497
377.294	3.91177
377.506	2.53252
377.717	3.7363
377.929	2.94945
378.14	2.47753
378.352	3.13151
378.563	3.09271
378.775	3.86725
378.986	2.18824
379.197	2.86724
379.409	2.29727
379.62	3.35819
379.832	3.21523
380.043	2.69729
380.254	3.13204
380.466	2.28172
380.677	4.97192
380.888	4.33692
381.1	4.72217
381.311	4.73733
381.522	3.03584
381.733	5.02038
381.945	2.98075
382.156	3.03269
382.367	2.75403
382.578	5.0835
382.789	4.94945
383.001	2.74786
383.212	4.25601
383.423	4.3551
383.634	3.97232
383.845	3.73577
384.056	2.92919
384.267	3.28613
384.478	3.22305
384.69	2.50207
384.901	3.54619
385.112	3.45591
385.323	4.46229
385.534	3.60516
385.745	3.59597
385.956	3.48264
386.167	2.76108
386.378	3.76886
386.588	2.85963
386.799	2.93802
387.01	2.34222
387.221	4.0238
387.432	3.34783
387.643	4.6503
387.854	3.21267
388.065	3.25887
388.275	3.29242
388.486	3.08258
388.697	3.3972
388.908	3.12973
389.119	4.18301
389.329	4.56638
389.54	3.61433
389.751	3.8164
389.962	4.47495
390.172	3.67137
390.383	3.48695
390.594	3.22667
390.804	3.34954
391.015	3.38435
391.226	3.82217
391.436	4.06805
391.647	3.96937
391.858	4.18518
392.068	2.75905
392.279	3.11615
392.489	3.90484
392.7	4.43763
392.91	3.32589
393.121	3.34917
393.331	4.11583
393.542	4.61814
393.752	4.31701
393.963	4.23175
394.173	4.06075
394.384	4.33936
394.594	4.01907
394.804	3.26703
395.015	4.11686
395.225	4.18361
395.436	3.26607
395.646	4.26977
395.856	3.65633
396.067	3.0867
396.277	4.53173
396.487	4.22081
396.697	4.24537
396.908	4.28671
397.118	4.42072
397.328	4.2183
397.538	4.71427
397.749	3.60352
397.959	4.66415
398.169	4.40735
398.379	3.26047
398.589	4.57432
398.8	4.31754
399.01	4.21194
399.22	3.97117
399.43	5.64094
399.64	4.1877
399.85	4.56613
400.06	4.21676
400.27	3.76795
400.48	4.14291
400.69	5.1713
400.9	3.87051
401.11	3.65839
401.32	4.73933
401.53	3.98023
401.74	5.31642
401.95	4.70967
402.16	3.85346
402.37	4.57888
402.58	4.14795
402.79	4.80117
403	5.20991
403.209	4.08815
403.419	5.16304
403.629	3.97788
403.839	5.12448
404.049	5.01809
404.258	4.25277
404.468	4.06652
404.678	4.77289
404.888	5.22178
405.097	4.21156
405.307	4.44736
405.517	4.90135
405.727	4.8227
405.936	4.31221
406.146	4.63335
406.356	5.30364
406.565	4.54044
406.775	4.30041
406.984	4.20826
407.194	5.58388
407.404	4.53273
407.613	5.00783
407.823	5.13296
408.032	5.33245
408.242	5.23374
408.451	4.27748
408.661	4.72568
408.87	5.75656
409.08	4.39261
409.289	5.01194
409.499	4.96738
409.708	4.9354
409.918	3.62168
410.127	4.97606
410.336	5.83376
410.546	5.32148
410.755	4.55917
410.964	4.6099
411.174	4.28355
411.383	5.09503
411.592	4.99831
411.802	4.24746
412.011	5.30742
412.22	4.6977
412.429	5.90479
412.639	5.86969
412.848	5.44121
413.057	5.75689
413.266	5.60337
413.475	4.98454
413.685	5.35139
413.894	5.61251
414.103	5.82205
414.312	5.60972
414.521	4.97663
414.73	5.22226
414.939	6.42663
415.148	5.48261
415.357	5.31515
415.566	5.10211
415.776	5.17081
415.985	5.13822
416.194	5.76914
416.403	6.40013
416.611	4.60524
416.82	5.17822
417.029	5.54958
417.238	5.21063
417.447	5.12366
417.656	5.36911
417.865	5.12247
418.074	5.44767
418.283	5.59806
418.492	6.14074
418.7	6.00855
418.909	6.77517
419.118	5.97953
419.327	6.31809
419.536	6.20106
419.744	6.06154
419.953	7.15797
420.162	7.27891
420.371	6.71478
420.579	6.98024
420.788	7.78772
420.997	7.85691
421.205	7.99782
421.414	7.78739
421.623	7.82296
421.831	7.46819
422.04	7.95595
422.249	7.1901
422.457	7.59986
422.666	6.89312
422.874	7.71806
423.083	7.79228
423.291	7.91018
423.5	7.67752
423.708	7.94644
423.917	8.34858
424.125	7.9605
424.334	7.77641
424.542	9.19443
424.751	8.74341
424.959	8.32435
425.167	8.50559
425.376	8.33477
425.584	7.34502
425.793	7.46924
426.001	6.57549
426.209	6.89686
426.418	6.05882
426.626	5.87868
426.834	5.70559
427.042	6.00107
427.251	5.73158
427.459	6.54333
427.667	6.03587
427.875	5.44728
428.084	5.85299
428.292	6.81657
428.5	6.35978
428.708	5.53171
428.916	5.56866
429.124	6.17324
429.333	5.91414
429.541	6.00597
429.749	6.21258
429.957	6.1815
430.165	7.71054
430.373	5.35187
430.581	6.38672
430.789	7.00924
430.997	6.10542
431.205	5.85562
431.413	6.39776
431.621	6.14656
431.829	6.7187
432.037	6.18063
432.245	6.62191
432.453	6.58081
432.661	6.34837
432.869	7.47194
433.076	6.04286
433.284	6.31665
433.492	6.79694
433.7	7.02339
433.908	6.23109
434.116	6.45512
434.323	6.56961
434.531	6.32391
434.739	6.68261
434.947	6.79435
435.154	6.85646
435.362	6.46416
435.57	6.193
435.778	6.03996
435.985	6.6499
436.193	6.15714
436.401	7.15464
436.608	6.46642
436.816	6.19923
437.023	7.24655
437.231	7.42461
437.439	6.67717
437.646	6.93274
437.854	6.85882
438.061	6.95436
438.269	6.55378
438.476	7.02523
438.684	6.75123
438.891	6.52155
439.099	6.40926
439.306	6.16502
439.514	6.23526
439.721	7.16078
439.929	6.79477
440.136	7.60337
440.343	7.58097
440.551	7.37574
440.758	8.83544
440.965	7.68167
441.173	7.35351
441.38	7.07305
441.587	7.18791
441.795	6.93115
442.002	6.74779
442.209	6.80437
442.416	6.96296
442.624	6.94678
442.831	6.82013
443.038	6.38298
443.245	6.11289
443.452	6.51101
443.66	7.06164
443.867	6.487
444.074	6.52479
444.281	6.42823
444.488	6.67118
444.695	6.82326
444.902	6.65648
445.109	7.49892
445.316	7.33688
445.523	7.54416
445.73	7.65861
445.937	8.42121
446.144	8.72503
446.351	8.9867
446.558	8.12285
446.765	9.54413
446.972	9.10589
447.179	8.57152
447.386	9.24148
447.593	7.8866
447.8	8.63806
448.007	7.57084
448.214	7.16883
448.42	6.78215
448.627	7.2763
448.834	6.71881
449.041	6.56099
449.248	6.58955
449.454	7.09808
449.661	7.66101
449.868	6.48119
450.075	6.4274
450.281	5.66498
450.488	6.24251
450.695	6.27327
450.901	6.46258
451.108	6.39705
451.315	7.32985
451.521	6.66402
451.728	7.3536
451.935	6.44424
452.141	6.75522
452.348	6.8157
452.554	6.74005
452.761	6.54949
452.967	7.63543
453.174	6.83075
453.38	6.98248
453.587	6.20678
453.793	6.80251
454	7.19834
454.206	7.91745
454.413	7.23672
454.619	7.09891
454.825	6.45496
455.032	7.19604
455.238	7.26262
455.445	6.1904
455.651	6.92876
455.857	5.92769
456.064	6.64075
456.27	6.54018
456.476	6.68209
456.682	6.18512
456.889	7.01991
457.095	7.08856
457.301	8.24691
457.507	6.99684
457.714	7.03478
457.92	6.97621
458.126	6.68804
458.332	6.95475
458.538	6.81557
458.744	7.0548
458.951	7.01183
459.157	8.81183
459.363	8.00329
459.569	8.1496
459.775	8.7888
459.981	8.31047
460.187	8.62035
460.393	8.90314
460.599	9.09756
460.805	8.21937
461.011	7.56197
461.217	7.63699
461.423	7.49534
461.629	6.83343
461.835	7.21834
462.041	6.80689
462.247	7.8063
462.453	6.88815
462.658	6.84468
462.864	7.29095
463.07	7.06844
463.276	7.1135
463.482	7.02748
463.688	7.76412
463.893	6.70471
464.099	6.92537
464.305	7.91342
464.511	6.75119
464.716	6.99272
464.922	7.52699
465.128	6.6777
465.333	8.0649
465.539	7.53449
465.745	7.05745
465.95	7.11796
466.156	8.66587
466.362	7.76836
466.567	7.25773
466.773	6.83657
466.978	7.96963
467.184	6.67568
467.389	6.11669
467.595	7.21822
467.8	6.76145
468.006	7.96715
468.211	7.86457
468.417	6.52069
468.622	7.37888
468.828	7.57175
469.033	7.39365
469.239	8.6452
469.444	6.97543
469.649	7.63918
469.855	7.16736
470.06	7.22789
470.266	6.80812
470.471	7.52816
470.676	7.37428
470.881	6.30735
471.087	7.97545
471.292	8.70025
471.497	6.61429
471.703	7.17032
471.908	6.977
472.113	7.31329
472.318	7.76274
472.523	6.77516
472.729	7.43315
472.934	7.59682
473.139	7.03929
473.344	7.43946
473.549	7.91524
473.754	6.91957
473.959	8.7992
474.164	6.84395
474.369	7.25335
474.575	7.71909
474.78	7.39823
474.985	7.00585
475.19	6.37476
475.395	6.87446
475.6	7.27191
475.804	8.15176
476.009	7.34215
476.214	7.40065
476.419	7.22336
476.624	6.48286
476.829	6.87742
477.034	7.71942
477.239	7.04313
477.444	7.71659
477.648	7.77711
477.853	7.62191
478.058	7.2761
478.263	7.02
478.468	6.7929
478.672	6.8916
478.877	8.07468
479.082	8.07187
479.287	7.54256
479.491	7.35905
479.696	6.97719
479.901	7.77758
480.105	7.7844
480.31	7.16211
480.515	7.51605
480.719	8.62838
480.924	7.36244
481.128	7.08941
481.333	7.72773
481.538	7.73346
481.742	7.83307
481.947	8.82
482.151	9.57787
482.356	10.25376
482.56	12.08399
482.765	13.41425
482.969	15.91311
483.174	17.9274
483.378	20.70861
483.582	21.31867
483.787	22.87948
483.991	23.16007
484.196	23.5199
484.4	23.05277
484.604	23.22164
484.809	20.82939
485.013	19.61213
485.217	17.77425
485.422	15.86804
485.626	14.4807
485.83	13.6662
486.034	13.32991
486.239	13.62981
486.443	13.92503
486.647	14.20655
486.851	15.27565
487.055	16.55863
487.26	16.33428
487.464	17.15396
487.668	16.75632
487.872	17.09426
488.076	17.20126
488.28	16.57042
488.484	15.44415
488.688	14.93086
488.892	14.25121
489.096	13.25061
489.3	12.23203
489.504	11.40301
489.708	10.89986
489.912	10.78467
490.116	10.59893
490.32	10.24499
490.524	11.21097
490.728	12.09931
490.932	12.5638
491.136	13.33971
491.34	14.28534
491.544	14.63637
491.748	14.48608
491.951	14.5044
492.155	13.96574
492.359	13.62335
492.563	12.41236
492.767	11.61294
492.97	10.45567
493.174	9.28869
493.378	8.7013
493.582	7.52783
493.785	7.37966
493.989	7.5069
494.193	7.53442
494.396	7.39278
494.6	7.84657
494.804	7.61239
495.007	7.24568
495.211	7.3903
495.414	7.5106
495.618	7.8869
495.822	8.2882
496.025	7.80086
496.229	8.01154
496.432	7.41837
496.636	7.74675
496.839	7.61217
497.043	8.41405
497.246	7.81875
497.45	7.48788
497.653	7.69391
497.856	7.69012
498.06	7.18696
498.263	7.56154
498.467	7.38817
498.67	7.99606
498.873	7.8221
499.077	7.44335
499.28	7.5021
499.483	7.75932
499.686	7.87102
499.89	7.69253
500.093	8.06319
500.296	7.29786
500.499	8.32574
500.703	7.54934
500.906	7.81347
501.109	8.40677
501.312	7.63572
501.515	7.57612
501.719	7.7974
501.922	8.17598
502.125	7.72865
502.328	7.49631
502.531	7.19947
502.734	7.57525
502.937	6.89209
503.14	7.76975
503.343	7.29784
503.546	7.566
503.749	7.32612
503.952	8.11678
504.155	7.33642
504.358	7.96969
504.561	7.74318
504.764	6.99701
504.967	7.67917
505.17	7.54926
505.373	8.42271
505.576	7.65207
505.778	7.88121
505.981	7.31196
506.184	8.24238
506.387	6.84191
506.59	8.70623
506.793	8.18255
506.995	7.93301
507.198	6.92659
507.401	7.97966
507.604	7.94751
507.806	7.37352
508.009	7.42634
508.212	8.22772
508.414	7.4094
508.617	7.53318
508.82	7.6834
509.022	8.44437
509.225	7.85283
509.427	7.01673
509.63	8.3688
509.833	7.71904
510.035	7.54038
510.238	7.02955
510.44	8.35969
510.643	6.8797
510.845	8.66378
511.048	7.91323
511.25	7.46202
511.453	7.58461
511.655	7.84074
511.858	7.65376
512.06	8.14457
512.262	7.80687
512.465	8.11547
512.667	7.4633
512.869	7.14321
513.072	7.91831
513.274	8.0274
513.476	7.89396
513.679	8.02561
513.881	7.14671
514.083	8.49711
514.286	7.28651
514.488	7.35418
514.69	7.26206
514.892	6.99968
515.094	8.01952
515.297	7.35947
515.499	7.88411
515.701	7.32026
515.903	8.5513
516.105	8.61991
516.307	8.11555
516.509	6.84183
516.711	7.33176
516.913	7.9635
517.116	7.93582
517.318	7.62878
517.52	8.53887
517.722	8.28563
517.924	7.40254
518.126	8.2103
518.328	7.7751
518.529	8.38808
518.731	9.16183
518.933	7.76304
519.135	7.94151
519.337	8.49794
519.539	7.96363
519.741	6.86694
519.943	7.52632
520.145	7.54826
520.346	7.96078
520.548	7.43222
520.75	7.72994
520.952	7.51627
521.153	7.74189
521.355	7.84558
521.557	7.25948
521.759	7.72015
521.96	7.67432
522.162	7.16838
522.364	8.29557
522.565	7.46754
522.767	8.00595
522.969	8.23438
523.17	8.09317
523.372	7.94794
523.573	7.59842
523.775	7.72263
523.977	7.50489
524.178	8.86001
524.38	7.72243
524.581	8.3492
524.783	7.84134
524.984	8.26951
525.186	8.09616
525.387	8.62245
525.589	8.50573
525.79	8.56097
525.991	8.58211
526.193	9.06528
526.394	8.5348
526.596	9.34768
526.797	9.60772
526.998	9.33982
527.2	9.79199
527.401	11.62778
527.602	12.50561
527.803	14.63035
528.005	15.61138
528.206	16.77037
528.407	17.60186
528.608	17.63717
528.81	17.96479
529.011	17.37448
529.212	18.01404
529.413	16.84481
529.614	15.6549
529.815	14.68168
530.017	13.5569
530.218	11.90448
530.419	10.5928
530.62	10.22387
530.821	9.75363
531.022	8.58013
531.223	9.35146
531.424	9.19083
531.625	9.23106
531.826	9.02493
532.027	9.5362
532.228	10.7542
532.429	10.82283
532.63	11.09942
532.831	11.92818
533.032	11.99977
533.233	12.70077
533.433	12.44343
533.634	12.59483
533.835	11.82915
534.036	11.27209
534.237	10.81794
534.438	9.96461
534.638	8.88044
534.839	8.52878
535.04	8.50354
535.241	7.90244
535.441	8.75784
535.642	8.46729
535.843	7.94783
536.043	8.26893
536.244	8.50156
536.445	8.74674
536.645	9.31332
536.846	9.01127
537.047	9.53105
537.247	8.35423
537.448	8.13491
537.648	7.94907
537.849	7.71886
538.049	7.61958
538.25	7.95753
538.451	7.94432
538.651	7.37001
538.851	8.12183
539.052	8.39193
539.252	8.25424
539.453	8.03102
539.653	8.23564
539.854	8.16355
540.054	8.32746
540.254	9.91262
540.455	10.79803
540.655	10.93662
540.855	12.22803
541.056	13.13153
541.256	13.03947
541.456	13.86026
541.657	13.40989
541.857	14.0739
542.057	12.7275
542.257	12.18183
542.458	12.33538
542.658	11.91546
542.858	10.22098
543.058	10.28504
543.258	9.72576
543.458	8.50091
543.659	8.18793
543.859	8.60191
544.059	8.317
544.259	7.79014
544.459	8.35231
544.659	7.61221
544.859	8.03764
545.059	7.64518
545.259	8.27344
545.459	8.05944
545.659	8.39695
545.859	8.00767
546.059	8.19936
546.259	7.61483
546.459	7.41269
546.659	7.54384
546.859	8.28204
547.059	7.93379
547.258	8.11061
547.458	8.074
547.658	7.27965
547.858	7.28757
548.058	7.79745
548.258	7.50895
548.457	7.30139
548.657	8.96289
548.857	7.53438
549.057	8.14956
549.256	8.06697
549.456	7.45473
549.656	6.70205
549.855	8.93442
550.055	7.51503
550.255	8.80556
550.454	8.19394
550.654	8.30807
550.853	8.80977
551.053	8.31078
551.253	8.08131
551.452	8.31731
551.652	7.33592
551.851	7.14351
552.051	7.76513
552.25	7.61999
552.45	7.56048
552.649	7.72187
552.849	7.36252
553.048	7.9284
553.248	8.25863
553.447	7.18222
553.646	8.30253
553.846	9.27169
554.045	8.51947
554.244	7.06011
554.444	8.58479
554.643	7.25032
554.842	8.59978
555.042	9.03246
555.241	7.47149
555.44	7.16606
555.64	8.18297
555.839	8.83928
556.038	8.11991
556.237	7.39145
556.436	7.85116
556.636	8.13616
556.835	7.39772
557.034	8.79897
557.233	7.81963
557.432	6.87761
557.631	8.45583
557.83	7.65154
558.029	7.5385
558.228	7.2809
558.427	7.15871
558.626	8.08555
558.825	7.20139
559.024	7.59824
559.223	9.0864
559.422	7.75571
559.621	8.13136
559.82	6.34408
560.019	7.86986
560.218	7.54969
560.417	6.27301
560.616	7.62364
560.815	9.96851
561.014	6.91645
561.212	8.87332
561.411	7.93805
561.61	6.93206
561.809	7.62682
562.008	8.98727
562.206	7.62134
562.405	8.14933
562.604	7.49798
562.803	7.93947
563.001	7.75898
563.2	6.98512
563.399	8.07194
563.597	7.0578
563.796	7.77921
563.995	7.06882
564.193	8.33219
564.392	7.55225
564.59	9.24672
564.789	6.73375
564.988	7.66912
565.186	8.11167
565.385	7.94454
565.583	7.74223
565.782	7.89989
565.98	7.85211
566.179	7.70293
566.377	7.23469
566.575	7.26603
566.774	8.65067
566.972	8.28366
567.171	9.13316
567.369	8.64767
567.567	7.83403
567.766	7.81914
567.964	6.41256
568.162	8.20826
568.361	8.50491
568.559	7.61097
568.757	7.9574
568.956	7.80208
569.154	7.79299
569.352	8.22338
569.55	7.73827
569.748	7.80231
569.947	7.32084
570.145	7.19894
570.343	7.23548
570.541	8.86606
570.739	7.07467
570.937	7.84813
571.135	8.24203
571.333	9.40036
571.532	9.33271
571.73	8.18506
571.928	8.51656
572.126	8.44304
572.324	7.60887
572.522	8.53585
572.72	9.55211
572.918	7.77486
573.116	8.01998
573.313	7.57274
573.511	7.74686
573.709	7.54813
573.907	8.38316
574.105	7.55795
574.303	6.95131
574.501	6.76537
574.699	8.1581
574.896	8.0244
575.094	8.34579
575.292	6.9526
575.49	8.42208
575.688	7.7246
575.885	8.69731
576.083	9.46599
576.281	8.12176
576.478	7.18609
576.676	8.14912
576.874	6.81379
577.071	7.71114
577.269	9.35956
577.467	7.49532
577.664	7.62696
577.862	8.32273
578.059	7.18724
578.257	8.32431
578.455	7.65787
578.652	7.69671
578.85	6.35462
579.047	7.95212
579.245	7.57007
579.442	7.73487
579.64	7.5705
579.837	6.53736
580.034	9.68214
580.232	7.60697
580.429	7.03357
580.627	8.10779
580.824	8.64693
581.021	8.31664
581.219	7.48644
581.416	7.26619
581.613	9.07824
581.811	8.6836
582.008	7.02176
582.205	8.61666
582.402	8.09586
582.6	9.01166
582.797	7.87323
582.994	8.13911
583.191	8.46746
583.388	7.86583
583.586	8.38062
583.783	8.80079
583.98	7.01951
584.177	8.08184
584.374	5.86198
584.571	7.63962
584.768	7.79344
584.965	7.56342
585.162	8.50273
585.359	9.18858
585.556	7.82981
585.753	8.27019
585.95	6.79202
586.147	7.00661
586.344	8.28085
586.541	7.67627
586.738	6.82102
586.935	7.65493
587.132	7.36353
587.329	8.73619
587.526	7.8582
587.722	12.0934
587.919	6.76233
588.116	8.14523
588.313	9.27433
588.51	9.72795
588.706	7.65685
588.903	8.3848
589.1	8.8558
589.297	10.3566
589.493	7.84291
589.69	8.48335
589.887	7.49846
590.083	7.05316
590.28	7.39002
590.477	8.72072
590.673	8.33997
590.87	8.97742
591.067	7.47422
591.263	8.26681
591.46	8.10661
591.656	7.59698
591.853	9.25829
592.049	7.30976
592.246	7.40162
592.442	8.80741
592.639	9.06909
592.835	7.22756
593.032	8.23662
593.228	6.94451
593.425	6.90252
593.621	6.74417
593.817	8.22743
594.014	7.2842
594.21	8.22589
594.406	9.06434
594.603	8.31355
594.799	7.60254
594.995	6.27224
595.192	8.80983
595.388	7.62825
595.584	7.63426
595.78	7.0633
595.977	10.4623
596.173	9.54041
596.369	8.04547
596.565	7.37735
596.761	7.05247
596.957	9.06302
597.154	7.41368
597.35	7.5874
597.546	7.40339
597.742	8.14553
597.938	7.97193
598.134	7.01172
598.33	7.82427
598.526	8.78685
598.722	8.11747
598.918	9.36055
599.114	8.34254
599.31	6.83052
599.506	7.88873
599.702	7.40603
599.898	8.1644
600.094	8.79366
600.29	8.67935
600.485	8.59042
600.681	7.4946
600.877	9.47736
601.073	8.0875
601.269	10.15387
601.465	9.54735
601.66	7.21136
601.856	6.4597
602.052	10.06529
602.248	7.9986
602.443	6.42062
602.639	7.2374
602.835	7.55478
603.03	7.47125
603.226	8.98955
603.422	7.53
603.617	7.96738
603.813	7.90366
604.009	7.73567
604.204	9.0793
604.4	6.9904
604.595	8.99371
604.791	7.20562
604.986	8.27014
605.182	7.33359
605.377	7.62848
605.573	7.60525
605.768	7.74933
605.964	8.15336
606.159	8.41769
606.355	8.67953
606.55	7.39324
606.746	8.74385
606.941	7.99308
607.136	9.60422
607.332	10.55371
607.527	6.98042
607.722	8.37807
607.918	7.87231
608.113	7.47479
608.308	8.93039
608.503	8.73987
608.699	8.57038
608.894	8.75782
609.089	7.70322
609.284	8.62492
609.479	7.85195
609.675	8.72845
609.87	7.9051
610.065	8.62501
610.26	8.68714
610.455	8.65878
610.65	7.99113
610.845	8.13584
611.04	8.54323
611.235	7.77322
611.43	7.80627
611.625	6.91087
611.82	9.43886
612.015	7.47877
612.21	9.66937
612.405	6.82942
612.6	9.84921
612.795	9.56039
612.99	8.88485
613.185	6.96152
613.38	7.27927
613.575	8.41249
613.77	11.30065
613.965	6.65625
614.159	7.4031
614.354	9.45127
614.549	9.43884
614.744	8.94242
614.938	7.03202
615.133	6.93133
615.328	9.74627
615.523	9.55673
615.717	11.21517
615.912	7.92769
616.107	8.55612
616.301	7.70665
616.496	7.51992
616.691	10.18298
616.885	9.23798
617.08	11.35107
617.274	9.62872
617.469	10.63217
617.664	9.16062
617.858	7.93327
618.053	8.68753
618.247	8.07208
618.442	5.9777
618.636	9.98891
618.831	7.73597
619.025	7.85245
619.219	11.7022
619.414	5.16721
619.608	8.00234
619.803	7.53941
619.997	10.82457
620.191	9.47586
620.386	8.89582
620.58	8.41015
620.774	6.48044
620.969	6.61112
621.163	8.60414
621.357	7.17745
621.551	8.34377
621.746	8.44127
621.94	8.1478
622.134	12.26903
622.328	10.97544
622.522	6.81964
622.716	9.72858
622.911	9.67998
623.105	9.36583
623.299	8.96014
623.493	12.07484
623.687	7.59093
623.881	7.74981
624.075	9.25206
624.269	10.08939
624.463	6.3807
624.657	6.75214
624.851	9.35482
625.045	9.40269
625.239	9.76772
625.433	7.94488
625.627	10.52924
625.821	8.0363
626.015	7.93736
626.209	8.59512
626.403	6.92147
626.596	9.0847
626.79	9.27101
626.984	7.21825
627.178	9.07351
627.372	8.88509
627.565	9.33662
627.759	6.96401
627.953	7.14832
628.147	8.70364
628.34	9.2649
628.534	10.93275
628.728	8.14987
628.921	9.51358
629.115	9.42966
629.309	9.49887
629.502	9.80709
629.696	8.71719
629.89	8.45251
630.083	8.82439
630.277	8.85082
630.47	10.76287
630.664	8.36807
630.857	6.79534
631.051	9.56591
631.244	9.98688
631.438	9.9348
631.631	7.69876
631.825	10.32479
632.018	9.29053
632.212	10.97457
632.405	10.23977
632.598	8.08622
632.792	8.97558
632.985	5.94748
633.178	8.5492
633.372	8.65771
633.565	8.45702
633.758	10.34562
633.952	7.82606
634.145	7.5678
634.338	8.00386
634.531	8.24317
634.724	7.60693
634.918	8.95613
635.111	8.2853
635.304	7.94132
635.497	11.69511
635.69	9.32349
635.883	10.19147
636.077	7.48257
636.27	9.28683
636.463	9.15493
636.656	9.13002
636.849	8.63816
637.042	9.37279
637.235	11.43935
637.428	9.9705
637.621	9.47434
637.814	10.96573
638.007	10.93386
638.2	10.86858
638.393	11.28947
638.586	7.25064
638.778	8.34033
638.971	9.02146
639.164	10.96672
639.357	9.50741
639.55	11.32941
639.743	9.99428
639.935	10.05219
640.128	12.4392
640.321	10.11335
640.514	9.55556
640.707	12.52351
640.899	10.41452
641.092	6.8032
641.285	25.01602
641.477	6.27246
641.67	13.32968
641.863	11.02873
642.055	9.87049
642.248	9.28903
642.441	9.18945
642.633	10.25244
642.826	11.07309
643.018	11.17848
643.211	12.54472
643.403	12.82384
643.596	12.9831
643.788	12.23784
643.981	9.19374
644.173	10.97576
644.366	9.06532
644.558	7.14854
644.751	11.03475
644.943	7.94933
645.135	12.32952
645.328	12.35453
645.52	10.62523
645.712	11.41143
645.905	14.89307
646.097	7.97735
646.289	10.13645
646.482	13.27653
646.674	8.58358
646.866	11.61729
647.058	10.35529
647.251	8.3938
647.443	8.74213
647.635	9.22066
647.827	8.09061
648.019	8.25738
648.211	9.54738
648.404	10.03115
648.596	12.69418
648.788	10.56163
648.98	10.13291
649.172	10.78907
649.364	10.50385
649.556	7.39342
649.748	14.03931
649.94	8.43886
650.132	11.32447
650.324	8.53627
650.516	8.90951
650.708	11.87957
650.9	7.43683
651.092	7.14401
651.284	7.92028
651.476	8.24141
651.667	11.0084
651.859	12.5051
652.051	9.5842
652.243	10.0998
652.435	9.24844
652.627	10.90484
652.818	10.77066
653.01	7.38787
653.202	8.76957
653.394	9.02742
653.585	10.87681
653.777	17.42441
653.969	13.03324
654.16	12.22012
654.352	8.53941
654.544	10.31718
654.735	12.08872
654.927	10.1365
655.118	12.94798
655.31	11.76976
655.502	11.98181
655.693	9.72363
655.885	11.17147
656.076	13.00183
656.268	10.99935
656.459	12.69573
656.651	12.83194
656.842	9.85884
657.034	9.3783
657.225	11.84958
657.416	12.89485
657.608	13.08653
657.799	10.56317
657.99	12.68412
658.182	9.6511
658.373	9.30837
658.564	12.50327
658.756	11.17617
658.947	10.17367
659.138	8.89916
659.33	9.5102
659.521	8.98059
659.712	10.07012
659.903	9.80493
660.094	9.26194
660.286	7.66875
660.477	13.17538
660.668	11.18679
660.859	10.14481
661.05	8.11593
661.241	11.02115
661.432	11.06744
661.623	9.79953
661.814	9.62475
662.006	7.98478
662.197	10.54019
662.388	12.65889
662.579	11.10079
662.77	12.9237
662.96	15.60834
663.151	12.44735
663.342	7.56583
663.533	11.9146
663.724	10.59605
663.915	14.43743
664.106	11.00583
664.297	14.31528
664.488	12.08202
664.678	9.76686
664.869	12.5133
665.06	12.6503
665.251	11.44572
665.442	11.90962
665.632	9.3333
665.823	15.04324
666.014	5.93186
666.204	12.35135
666.395	13.72508
666.586	15.96643
666.776	12.60898
666.967	14.49125
667.158	11.24864
667.348	14.36797
667.539	9.31136
667.729	13.13266
667.92	10.06445
668.111	13.43511
668.301	12.61267
668.492	10.87829
668.682	11.48875
668.873	11.15593
669.063	9.00186
669.253	11.85919
669.444	14.16024
669.634	11.10505
669.825	14.95275
670.015	13.64703
670.206	9.9745
670.396	15.82026
670.586	10.36511
670.777	12.46034
670.967	7.58093
671.157	11.08605
671.347	10.1352
671.538	14.56614
671.728	12.5012
671.918	15.28488
672.108	13.30041
672.299	11.52156
672.489	12.32908
672.679	10.17083
672.869	12.79645
673.059	16.42831
673.249	12.74144
673.44	9.48922
673.63	11.23528
673.82	13.69492
674.01	9.75023
674.2	12.95599
674.39	17.71475
674.58	12.94843
674.77	12.07611
674.96	11.58153
675.15	20.74145
675.34	14.49344
675.53	12.32381
675.72	10.92778
675.91	8.47013
676.099	16.00817
676.289	17.55394
676.479	14.45337
676.669	10.96289
676.859	12.83999
677.049	10.42915
677.238	12.50636
677.428	16.09887
677.618	13.34572
677.808	16.49593
677.997	13.48318
678.187	10.1403
678.377	12.13232
678.567	10.87542
678.756	11.26481
678.946	12.00814
679.136	9.39814
679.325	10.89224
679.515	10.36394
679.704	9.73786
679.894	14.02331
680.084	12.90251
680.273	14.83882
680.463	10.085
680.652	10.37171
680.842	11.6244
681.031	13.85383
681.221	10.15317
681.41	13.04622
681.6	11.48952
681.789	13.47468
681.978	14.83076
682.168	12.85415
682.357	12.87967
682.547	13.32728
682.736	12.89012
682.925	15.50136
683.115	15.17326
683.304	14.15208
683.493	12.3777
683.682	13.77588
683.872	13.39493
684.061	15.44558
684.25	14.03026
684.439	18.6948
684.629	14.50934
684.818	20.94273
685.007	13.06539
685.196	12.07625
685.385	17.75112
685.574	14.07747
685.763	13.82463
685.952	14.09933
686.142	10.28751
686.331	16.52689
686.52	9.65866
686.709	18.52883
686.898	17.67949
687.087	15.1461
687.276	17.68825
687.465	17.20512
687.654	12.71249
687.842	17.38385
688.031	10.47335
688.22	17.46459
688.409	14.40831
688.598	14.06816
688.787	20.0907
688.976	13.78863
689.165	19.16421
689.353	12.65569
689.542	15.34309
689.731	17.14073
689.92	19.99104
690.108	16.08678
690.297	13.3866
690.486	14.63965
690.675	16.12067
690.863	18.58094
691.052	18.1856
691.241	14.82494
691.429	14.99302
691.618	18.19085
691.806	10.63098
691.995	13.91351
692.184	14.08821
692.372	13.53538
692.561	14.97108
692.749	15.42412
692.938	23.74917
693.126	16.36106
693.315	14.16736
693.503	16.50018
693.692	17.4318
693.88	17.54133
694.068	20.80634
694.257	15.17615
694.445	16.68876
694.634	9.92397
694.822	17.20777
695.01	18.43969
695.199	21.13195
695.387	19.4156
695.575	18.87797
695.763	14.81762
695.952	14.12002
696.14	10.60095
696.328	13.08468
696.516	15.7826
696.705	16.55015
696.893	15.59177
697.081	10.47065
697.269	17.89471
697.457	12.24748
697.645	11.64575
697.833	17.16293
698.021	12.75886
698.21	13.68337
698.398	13.82916
698.586	11.59003
698.774	10.54198
698.962	14.08852
699.15	11.50034
699.338	10.03475
699.526	15.17511
699.714	12.08651
699.901	12.04858
700.089	15.54797
700.277	11.90794
700.465	13.57067
700.653	15.96947
700.841	15.52722
701.029	12.45324
701.217	18.31176
701.404	14.71568
701.592	18.5767
701.78	22.09056
701.968	14.00843
702.155	13.8766
702.343	11.75427
702.531	19.46028
702.718	16.87071
702.906	13.98176
703.094	13.64407
703.281	19.86276
703.469	14.84372
703.657	19.24302
703.844	26.21788
704.032	22.15679
704.219	14.91075
704.407	17.933
704.595	21.11729
704.782	17.72745
704.97	16.48805
705.157	15.35731
705.345	22.90901
705.532	28.77026
705.719	19.95154
705.907	23.40533
706.094	19.19315
706.282	26.09067
706.469	19.68551
706.656	20.85182
706.844	19.76462
707.031	24.31565
707.218	22.20153
707.406	26.63098
707.593	24.35244
707.78	23.80824
707.968	22.22055
708.155	19.23069
708.342	24.4716
708.529	24.66612
708.716	23.45758
708.904	27.32427
709.091	23.96677
709.278	18.66559
709.465	28.88612
709.652	27.49876
709.839	25.72882
710.026	22.03361
710.213	16.1974
710.4	22.11339
710.587	23.44159
710.774	25.20806
710.961	25.15368
711.148	22.16785
711.335	24.44666
711.522	21.36372
711.709	23.14738
711.896	28.4071
712.083	25.23887
712.27	18.7995
712.457	22.31091
712.644	16.76245
712.831	29.40666
713.017	23.19739
713.204	24.38354
713.391	19.12232
713.578	24.60798
713.765	26.50981
713.951	22.73458
714.138	31.82659
714.325	21.59727
714.512	20.30147
714.698	17.04386
714.885	25.27171
715.072	19.90045
715.258	19.83562
715.445	17.18827
715.631	23.66586
715.818	10.04912
716.005	16.71224
716.191	21.34002
716.378	17.48328
716.564	21.61185
716.751	15.22789
716.937	17.35309
717.124	22.08789
717.31	15.74775
717.497	26.27517
717.683	16.62413
717.869	26.93733
718.056	16.67981
718.242	21.25811
718.429	18.71708
718.615	14.57458
718.801	18.57079
718.988	23.91045
719.174	20.51633
719.36	17.61872
719.547	24.09402
719.733	20.20656
719.919	20.70439
720.105	21.4234
720.291	21.25263
720.478	21.11959
720.664	18.27347
720.85	17.49172
721.036	31.66805
721.222	25.76186
721.408	19.52233
721.595	27.88425
721.781	26.75671
721.967	24.81913
722.153	27.19051
722.339	22.79436
722.525	22.36366
722.711	15.65956
722.897	14.72119
723.083	18.84524
723.269	25.03775
723.455	32.94078
723.641	37.97329
723.827	21.28597
724.012	22.63751
724.198	21.23563
724.384	26.49405
724.57	22.22302
724.756	14.94179
724.942	12.55819
725.127	26.0853
725.313	26.93145
725.499	25.95147
725.685	30.05732
725.87	22.46771
726.056	16.90933
726.242	26.20989
726.428	14.31422
726.613	25.22288
726.799	19.56976
726.985	16.47164
727.17	13.95258
727.356	30.64027
727.541	17.59627
727.727	20.78934
727.913	24.97775
728.098	18.85963
728.284	23.61165
728.469	16.45739
728.655	17.18672
728.84	26.3291
729.026	24.32361
729.211	24.39489
729.397	22.65617
729.582	24.57757
729.767	20.51743
729.953	22.98181
730.138	27.3334
730.323	11.05276
730.509	16.84864
730.694	29.56473
730.879	23.82521
731.065	22.50881
731.25	32.58617
731.435	24.07811
731.621	15.16142
731.806	19.05868
731.991	22.27187
732.176	14.93265
732.361	28.76986
732.547	22.82631
732.732	15.09751
732.917	32.84476
733.102	16.04772
733.287	19.17753
733.472	21.61414
733.657	21.37409
733.842	14.96154
734.027	18.39275
734.212	20.60316
734.397	18.0771
734.582	21.55396
734.767	25.9131
734.952	28.6501
735.137	10.75433
735.322	28.60793
735.507	23.20001
735.692	22.49107
735.877	31.61623
736.062	30.76571
736.247	23.33016
736.431	21.72123
736.616	27.13868
736.801	23.84606
736.986	22.19732
737.171	16.98045
737.355	16.31823
737.54	29.13091
737.725	22.48006
737.909	35.90567
738.094	19.5539
738.279	26.25051
738.463	21.06844
738.648	25.10254
738.833	24.07435
739.017	33.37736
739.202	21.78156
739.386	21.5471
739.571	18.11763
739.756	27.031
739.94	22.52108
740.125	25.27089
740.309	19.53658
740.494	26.61098
740.678	24.04736
740.863	24.96279
741.047	23.44957
741.231	31.66226
741.416	19.3768
741.6	31.3095
741.785	18.99747
741.969	27.61211
742.153	30.84191
742.338	13.58001
742.522	22.88899
742.706	27.42711
742.89	17.28204
743.075	23.85929
743.259	30.36138
743.443	29.70645
743.627	30.11873
743.812	35.91497
743.996	15.56219
744.18	22.18814
744.364	20.49038
744.548	36.70521
744.732	22.52407
744.916	28.0354
745.1	26.96088
745.285	21.82142
745.469	28.22128
745.653	32.40157
745.837	17.56911
746.021	37.79777
746.205	30.59126
746.389	23.81506
746.573	22.8352
746.757	32.45957
746.94	20.4628
747.124	30.56874
747.308	17.6018
747.492	30.92584
747.676	19.68701
747.86	39.88854
748.044	21.85274
748.227	15.0776
748.411	46.71809
748.595	25.43943
748.779	19.71349
748.963	26.67858
749.146	24.17997
749.33	19.04811
749.514	19.08772
749.697	30.38717
749.881	19.30822
750.065	17.9676
750.248	24.65166
750.432	38.43936
750.616	23.92446
750.799	17.74877
750.983	39.01421
751.166	39.91728
751.35	15.68045
751.533	29.01944
751.717	34.61445
751.9	34.98113
752.084	22.05797
752.267	18.93846
752.451	19.20106
752.634	24.83043
752.818	27.40059
753.001	29.81218
753.184	30.93393
753.368	26.90749
753.551	6.73403
753.734	20.38391
753.918	40.61
754.101	21.21686
754.284	29.17349
754.467	20.89847
754.651	20.62647
754.834	19.80917
755.017	31.24364
755.2	32.5179
755.384	18.1985
755.567	29.21623
755.75	31.04461
755.933	22.82154
756.116	30.5575
756.299	21.48629
756.482	19.72573
756.665	28.32843
756.848	25.64569
757.032	26.66353
757.215	16.63693
757.398	19.6237
757.581	19.78957
757.764	42.00587
757.947	24.95827
758.129	30.21829
758.312	8.47399
758.495	23.70945
758.678	23.90473
758.861	23.3626
759.044	38.49112
759.227	18.7762
759.41	19.58437
759.592	30.37806
759.775	22.29513
759.958	31.79841
760.141	16.91953
760.324	40.79695
760.506	34.67267
760.689	30.1282
760.872	39.62979
761.054	28.01994
761.237	23.72038
761.42	26.84173
761.602	30.42758
761.785	28.01546
761.968	32.36356
762.15	37.68878
762.333	24.41774
762.515	29.17341
762.698	23.1732
762.88	31.2643
763.063	28.88403
763.245	32.42968
763.428	20.0662
763.61	22.49286
763.793	17.92117
763.975	27.52841
764.158	23.19114
764.34	20.78297
764.522	18.89875
764.705	23.10927
764.887	34.32426
765.069	15.82336
765.252	28.76367
765.434	29.22706
765.616	25.90412
765.799	20.64885
765.981	28.78844
766.163	20.25026
766.345	33.73984
766.528	21.53206
766.71	10.57627
766.892	27.60221
767.074	34.53652
767.256	22.73723
767.438	37.15453
767.62	26.71855
767.802	42.50969
767.985	30.91677
768.167	38.00978
768.349	23.13863
768.531	29.92651
768.713	27.14298
768.895	32.48553
769.077	29.13851
769.259	45.55082
769.441	63.69804
769.623	30.69932
769.804	37.6021
769.986	35.41809
770.168	43.75735
770.35	54.18455
770.532	40.03201
770.714	45.94212
770.896	43.95058
771.077	17.33634
771.259	46.95438
771.441	40.69561
771.623	49.19012
771.804	60.27221
771.986	19.12745
772.168	31.47455
772.35	43.72376
772.531	62.05364
772.713	39.13288
772.894	50.44528
773.076	38.13252
773.258	32.70228
773.439	51.93713
773.621	58.08721
773.802	25.68164
773.984	31.05591
774.166	41.88439
774.347	55.30241
774.529	49.52007
774.71	19.97589
774.891	35.96713
775.073	33.29483
775.254	50.71698
775.436	30.61676
775.617	63.52898
775.799	31.38121
775.98	51.57246
776.161	58.04964
776.343	58.54465
776.524	38.36691
776.705	34.9203
776.886	19.89031
777.068	39.73538
777.249	88.68677
777.43	61.99583
777.611	25.9675
777.793	33.80988
777.974	60.30635
778.155	31.89276
778.336	25.87503
778.517	68.1064
778.698	30.40238
778.879	18.87503
779.061	11.28053
779.242	43.94096
779.423	42.57604
779.604	32.02872
779.785	36.5301
779.966	41.93663
780.147	51.26283
780.328	51.62636
780.509	71.31109
780.69	49.898
780.871	31.3047
781.051	22.5274
781.232	39.63056
781.413	38.83223
781.594	33.92683
781.775	34.01123
781.956	31.31674
782.137	17.86276
782.317	33.14507
782.498	40.33527
782.679	38.7837
782.86	41.77106
783.04	30.93828
783.221	40.53305
783.402	62.23029
783.583	37.57911
783.763	50.44099
783.944	32.69791
784.124	21.61457
784.305	62.76394
784.486	47.57276
784.666	38.0795
784.847	22.33994
785.027	83.27676
785.208	31.54738
785.388	27.1235
785.569	30.80461
785.749	34.72455
785.93	33.46736
786.11	21.18402
786.291	45.12181
786.471	40.04133
786.652	49.81843
786.832	37.25543
787.012	40.19054
787.193	25.3507
787.373	38.06539
787.553	33.67907
787.734	42.86503
787.914	34.56705
788.094	50.93478
788.275	42.90254
788.455	35.13817
788.635	26.44654
788.815	41.44333
788.995	27.24177
789.176	22.25525
789.356	29.83822
789.536	36.38058
789.716	43.61845
789.896	30.2073
790.076	31.7038
790.256	43.09588
790.436	16.36792
790.616	26.59988
790.796	42.29293
790.976	33.95137
791.156	29.94392
791.336	43.86415
791.516	42.86525
791.696	34.60111
791.876	23.08565
792.056	41.01235
792.236	50.16331
792.416	47.4044
792.596	42.42036
792.776	44.54459
792.956	47.49417
793.135	61.3814
793.315	25.16343
793.495	52.16574
793.675	46.75796
793.854	47.19975
794.034	51.4997
794.214	27.37977
794.394	48.16096
794.573	54.40493
794.753	41.06642
794.933	29.26636
795.112	41.34816
795.292	52.89235
795.472	59.99221
795.651	24.12587
795.831	38.11562
796.01	36.69404
796.19	34.4739
796.369	38.20913
796.549	44.05246
796.728	36.78933
796.908	23.47071
797.087	26.5175
797.267	35.56407
797.446	25.88996
797.626	43.47051
797.805	43.83916
797.984	31.14394
798.164	46.90936
798.343	29.1023
798.522	41.15271
798.702	40.5063
798.881	25.15965
799.06	35.3619
799.239	17.6604
799.419	29.33478
799.598	60.09843
799.777	43.44271
799.956	53.74053
800.136	34.35983
800.315	31.71667
800.494	44.12719
800.673	50.44816
800.852	47.13749
801.031	51.88758
801.21	45.18797
801.389	33.05868
801.568	41.77756
801.747	63.14841
801.926	36.96161
802.105	57.68985
802.284	32.60271
802.463	58.76338
802.642	40.23048
802.821	40.30522
803	56.37412
803.179	49.69045
803.358	51.40712
803.537	29.91613
803.716	39.06569
803.895	31.69078
804.073	35.82641
804.252	29.64503
804.431	43.98349
804.61	36.70362
804.789	49.08817
804.967	32.41206
805.146	32.02757
805.325	68.76959
805.503	44.15225
805.682	23.81864
805.861	84.02323
806.039	57.91362
806.218	32.97703
806.397	41.52185
806.575	37.83198
806.754	44.02674
806.932	27.0702
807.111	52.69216
807.289	49.96872
807.468	40.14889
807.646	52.88319
807.825	46.26517
808.003	41.63193
808.182	54.18706
808.36	39.11666
808.539	29.94109
808.717	59.94239
808.895	32.47056
809.074	42.06454
809.252	39.38448
809.43	47.35814
809.609	55.80377
809.787	62.89247
809.965	36.66495
810.144	38.74956
810.322	37.83701
810.5	47.45419
810.678	36.05411
810.856	69.26464
811.035	56.3793
811.213	48.28878
811.391	60.78782
811.569	42.78691
811.747	92.63417
811.925	56.58143
812.103	30.55594
812.281	39.87037
812.459	67.53776
812.637	65.86105
812.816	51.65275
812.994	71.66074
813.171	59.72212
813.349	48.67224
813.527	56.38929
813.705	63.21565
813.883	77.88464
814.061	53.36933
814.239	67.36534
814.417	73.56147
814.595	49.80607
814.773	46.51614
814.95	44.27452
815.128	50.92994
815.306	43.22384
815.484	39.8834
815.662	31.12598
815.839	26.12299
816.017	35.90407
816.195	57.96042
816.372	39.34422
816.55	51.95525
816.728	67.27442
816.905	41.07831
817.083	66.10381
817.261	43.02042
817.438	87.65886
817.616	68.84483
817.793	36.1561
817.971	53.41499
818.148	50.42111
818.326	59.69412
818.503	47.53886
818.681	67.1132
818.858	38.1414
819.036	41.61301
819.213	46.85443
819.391	36.52262
819.568	35.25575
819.745	30.89697
819.923	53.48756
820.1	39.2995
820.277	32.66472
820.455	38.0351
820.632	41.41876
820.809	44.81899
820.986	28.68611
821.164	25.13611
821.341	22.14589
821.518	33.40574
821.695	24.2197
821.872	22.79587
822.05	20.19722
822.227	16.8554
822.404	17.76616
822.581	20.04641
822.758	17.31794
822.935	17.01707
823.112	18.88487
823.289	16.10066
823.466	19.13473
823.643	17.82581
823.82	20.67028
823.997	18.43139
824.174	20.78996
824.351	27.91632
824.528	26.16504
824.705	23.97878
824.882	25.92319
825.059	33.36657
825.236	24.29804
825.412	24.75816
825.589	29.70768
825.766	43.00403
825.943	27.19007
826.12	31.74115
826.296	23.70303
826.473	29.87962
826.65	29.75257
826.827	35.34309
827.003	24.4795
827.18	27.06
827.357	30.14764
827.533	25.64756
827.71	16.13491
827.887	23.07097
828.063	25.92887
828.24	22.00215
828.416	28.39765
828.593	23.87286
828.769	33.31067
828.946	33.76584
829.122	35.32408
829.299	34.00026
829.475	22.15503
829.652	32.79192
829.828	52.85022
830.005	34.62322
830.181	46.88171
830.357	35.57982
830.534	49.05505
830.71	37.38189
830.886	49.58602
831.063	47.34502
831.239	58.79164
831.415	30.635
831.592	62.43151
831.768	37.75386
831.944	34.93719
832.12	67.00363
832.296	61.11604
832.473	52.42854
832.649	35.88138
832.825	52.12884
833.001	32.12974
833.177	46.42103
833.353	41.93817
833.529	25.6723
833.705	40.05226
833.881	26.3023
834.058	26.45351
834.234	27.63008
834.41	27.20505
834.586	21.93377
834.761	25.93926
834.937	29.17685
835.113	29.5106
835.289	25.03389
835.465	28.93682
835.641	26.83937
835.817	29.67104
835.993	48.88782
836.169	26.34649
836.344	38.22713
836.52	44.65487
836.696	41.01854
836.872	35.05955
837.048	90.07904
837.223	37.05478
837.399	69.48683
837.575	56.77443
837.75	49.35013
837.926	70.96997
838.102	104.34208
838.277	82.41337
838.453	114.37121
838.628	114.34948
838.804	45.76691
838.98	101.30905
839.155	53.02074
839.331	72.97239
839.506	51.70168
839.682	55.04406
839.857	72.25691
840.033	84.45149
840.208	39.72815
840.384	22.17721
840.559	41.90609
840.734	60.5925
840.91	79.00099
841.085	49.44458
841.26	50.28163
841.436	45.59791
841.611	45.03886
841.786	65.82555
841.962	80.6824
842.137	53.22461
842.312	36.07112
842.487	47.40163
842.663	43.14541
842.838	51.46931
843.013	154.49979
843.188	77.10746
843.363	82.44101
843.538	129.52831
843.714	123.35985
843.889	146.12404
844.064	141.48635
844.239	116.42733
844.414	132.21765
844.589	92.59046
844.764	166.50254
844.939	155.75433
845.114	176.11088
845.289	167.91249
845.464	227.64855
845.639	153.67972
845.814	73.84467
845.989	90.6102
846.163	115.22838
846.338	114.34108
846.513	168.33263
846.688	107.24986
846.863	109.70434
847.038	99.5766
847.212	113.08322
847.387	116.78586
847.562	127.67947
847.737	155.43061
847.911	54.49297
848.086	76.35135
848.261	207.42341
848.435	101.77933
848.61	155.18399
848.785	84.84807
848.959	163.11555
849.134	215.06981
849.308	224.31036
849.483	118.6498
849.658	188.75811
849.832	106.97623
850.007	86.23475
850.181	242.37781
850.356	91.22233
850.53	241.96898
850.705	78.09718
850.879	44.77322
851.053	116.55497
851.228	96.66055
851.402	133.48831
851.577	173.69265
851.751	190.97594
851.925	127.09401
852.099	60.03791
852.274	92.41057
852.448	113.20795
852.622	152.55926
852.797	120.3204
852.971	113.02231
853.145	123.02089
853.319	353.6266
853.493	176.16364
853.668	98.99574
853.842	221.63121
854.016	183.79805
854.19	213.14029
854.364	124.31711
854.538	134.56666
854.712	184.99698
854.886	118.21106
855.06	110.50839
855.234	50.87197
855.408	193.16428
855.582	164.76275
855.756	164.30267
855.93	215.55407
856.104	150.38016
856.278	170.13911
856.452	119.37602
856.626	163.52188
856.8	265.00948
856.973	149.23585
857.147	140.55819
857.321	145.76323
857.495	180.05748
857.669	118.58426
857.842	113.52297
858.016	184.34585
858.19	91.38816
858.364	281.1204
858.537	104.27921
858.711	130.59815
858.885	117.30833
859.058	103.98504
859.232	57.10661
859.405	65.10671
859.579	174.18647
859.753	146.75525
859.926	89.66792
860.1	72.18975
860.273	123.20913
860.447	206.76804
860.62	107.61106
860.794	251.64079
860.967	137.05384
861.141	184.4711
861.314	265.14263
861.487	153.67204
861.661	198.50211
861.834	206.05857
862.008	181.76428
862.181	130.79285
862.354	132.78522
862.528	141.03731
862.701	107.46094
862.874	70.78116
863.047	114.83173
863.221	107.77043
863.394	60.67308
863.567	212.86963
863.74	45.46092
863.913	174.07454
864.087	148.8645
864.26	176.72613
864.433	126.1678
864.606	226.37245
864.779	133.01398
864.952	60.33571
865.125	107.5898
865.298	121.92449
865.471	132.23737
865.644	256.49384
865.817	207.72207
865.99	169.94107
866.163	191.56642
866.336	109.34777
866.509	127.50353
866.682	114.34643
866.855	185.53047
867.028	73.05254
867.2	163.65121
867.373	55.53482
867.546	139.9446
867.719	264.1355
867.892	166.04753
868.064	95.83572
868.237	154.13547
868.41	126.20922
868.583	81.20395
868.755	83.15373
868.928	132.19072
869.101	270.44997
869.273	193.1149
869.446	168.4029
869.619	190.84323
869.791	130.08007
869.964	186.25649
870.136	178.58536
870.309	136.74241
870.481	141.75751
870.654	64.10486
870.826	140.31146
870.999	108.00455
871.171	175.5724
871.344	104.36919
871.516	129.82837
871.689	92.87196
871.861	133.57943
872.033	95.67604
872.206	116.95815
872.378	187.24912
872.55	113.43102
872.723	72.73565
872.895	122.58806
873.067	193.60593
873.24	210.20114
873.412	105.95329
873.584	118.17747
873.756	108.84215
873.928	151.19193
874.101	152.21736
874.273	162.33505
874.445	55.55199
874.617	79.1189
874.789	143.01858
874.961	115.0061
875.133	163.8527
875.305	134.67061
875.477	89.20041
875.649	74.59596
875.821	92.62767
875.993	221.58934
876.165	88.34086
876.337	148.61782
876.509	113.33053
876.681	151.55557
876.853	146.36544
877.025	141.90361
877.197	98.3916
877.369	91.64541
877.541	183.54617
877.712	50.44428
877.884	85.63471
878.056	166.34794
878.228	89.63132
878.4	160.76496
878.571	88.33709
878.743	67.20427
878.915	149.21242
879.086	82.38302
879.258	106.23097
879.43	95.73887
879.601	85.94806
879.773	91.47026
879.945	25.66271
880.116	41.51816
880.288	27.5933
880.459	30.1652
880.631	23.29355
880.802	28.4673
880.974	25.96596
881.145	19.76715
881.317	24.62444
881.488	20.01221
881.66	22.18721
881.831	20.09543
882.002	26.71158
882.174	20.87439
882.345	25.7545
882.517	16.14867
882.688	29.38433
882.859	25.13522
883.03	38.38533
883.202	37.03577
883.373	32.07059
883.544	31.38302
883.715	53.04855
883.887	42.64868
884.058	39.23584
884.229	54.01476
884.4	55.70386
884.571	59.34095
884.742	52.14305
884.914	59.06269
885.085	83.20762
885.256	104.30804
885.427	85.65965
885.598	99.13586
885.769	105.84853
885.94	94.30919
886.111	66.04312
886.282	122.34273
886.453	97.52542
886.624	68.40359
886.795	117.46998
886.966	98.37418
887.136	128.30834
887.307	92.88807
887.478	162.5095
887.649	137.83168
887.82	146.11935
887.991	115.56471
888.161	158.52267
888.332	149.39199
888.503	74.75638
888.674	202.46248
888.844	217.12389
889.015	167.82447
889.186	82.6231
889.356	204.39429
889.527	79.70684
889.698	347.19509
889.868	116.83405
890.039	149.71731
890.209	131.84028
890.38	178.07713
890.551	144.1091
890.721	212.23442
890.892	172.83157
891.062	121.42699
891.233	159.35117
891.403	116.34249
891.574	91.26634
891.744	127.02041
891.914	155.32539
892.085	132.70564
892.255	48.22436
892.425	217.85016
892.596	167.46646
892.766	149.95363
892.936	214.30999
893.107	174.54374
893.277	97.03077
893.447	73.3108
893.618	52.28321
893.788	117.01331
893.958	57.02384
894.128	68.23399
894.298	74.15366
894.468	102.5949
894.639	47.90497
894.809	34.378
894.979	52.55629
895.149	60.55775
895.319	48.4084
895.489	70.78212
895.659	84.31801
895.829	57.3411
895.999	60.23017
896.169	43.87059
896.339	54.7687
896.509	112.14361
896.679	128.58922
896.849	124.22556
897.019	169.34084
897.189	136.13632
897.358	119.41208
897.528	174.98902
897.698	61.42753
897.868	155.79289
898.038	272.80395
898.208	247.65079
898.377	88.82068
898.547	258.16575
898.717	405.70835
898.886	163.58777
899.056	253.57172
899.226	387.20992
899.395	227.26559
899.565	293.11118
899.735	186.68426
899.904	330.95102
900.074	275.71263
900.244	135.99498
900.413	496.3583
900.583	116.63679
900.752	172.6809
900.922	296.36357
901.091	35.62326
901.261	263.28658
901.43	254.52129
901.599	243.94998
901.769	552.66894
901.938	291.14782
902.108	286.69354
902.277	364.04256
902.446	94.07447
902.616	116.68211
902.785	177.68668
902.954	279.8155
903.124	188.61098
903.293	155.24779
903.462	84.67777
903.631	116.69204
903.801	85.90392
903.97	50.49153
904.139	79.40371
904.308	62.19674
904.477	50.0409
904.646	30.34082
904.816	46.68347
904.985	68.20407
905.154	99.44736
