Data from WindowProjectSample3_Transmission__36__00036.txt Node

Date: Sun May 04 10:38:36 EDT 2025
User: jessi
Spectrometer: SR400872
Trigger mode: 0
Integration Time (sec): 5.000050E-1
Scans to average: 20
Electric dark correction enabled: true
Nonlinearity correction enabled: true
Boxcar width: 0
XAxis mode: Wavelengths
Number of Pixels in Spectrum: 3648
>>>>>Begin Spectral Data<<<<<
184.909	-1094.37423
185.132	-1357.48066
185.355	-1479.76448
185.578	-975.63383
185.801	621.97109
186.024	-1040.15566
186.247	1086.52961
186.47	-971.3232
186.693	-489.73933
186.916	-961.0543
187.139	-806.80811
187.362	-929.29934
187.585	-1017.9437
187.808	-781.69964
188.031	2956.79257
188.254	-2052.04741
188.476	-1093.53668
188.699	-1181.38305
188.922	801.32027
189.145	-958.04387
189.368	-2544.30016
189.591	-1542.62412
189.813	-1513.24481
190.036	-1085.58843
190.259	-1115.03505
190.482	-1526.67152
190.705	-1935.72852
190.927	-837.42052
191.15	-1159.38165
191.373	-1571.45818
191.595	-1447.54155
191.818	-1500.0059
192.041	-1074.0065
192.263	-1189.48899
192.486	-541.50498
192.709	-1329.1818
192.931	-3020.38055
193.154	-1303.33376
193.377	-1203.66877
193.599	-1844.03037
193.822	-1520.86447
194.044	-1446.06192
194.267	-1217.85482
194.489	-194.99544
194.712	-1230.76643
194.934	-1541.01623
195.157	-663.30441
195.379	-1485.06484
195.602	-783.81431
195.824	-1395.37078
196.047	-2095.55693
196.269	-1059.29503
196.492	-1385.37101
196.714	-742.15396
196.936	-1385.6433
197.159	-914.24916
197.381	-757.21189
197.604	-480.77495
197.826	-1403.86149
198.048	-1295.78749
198.271	-982.19787
198.493	-1159.43225
198.715	-836.07369
198.938	-968.20701
199.16	-2816.46292
199.382	-1272.8976
199.604	-823.27832
199.827	-1093.84654
200.049	-1651.51225
200.271	-1069.6031
200.493	-2218.43505
200.715	-999.06778
200.938	-859.08833
201.16	-910.58704
201.382	-4108.76937
201.604	-1730.66608
201.826	-770.42635
202.048	-854.33399
202.27	-2180.49529
202.492	-2204.07087
202.715	-2613.16536
202.937	-2382.87204
203.159	-1822.60617
203.381	-2693.16223
203.603	-1079.45989
203.825	-6776.2404
204.047	-1129.64457
204.269	-1803.74737
204.491	-1317.19907
204.713	-948.50309
204.935	-1121.83107
205.156	-1258.76155
205.378	-1342.7391
205.6	-946.19817
205.822	-976.48167
206.044	2120.72486
206.266	-2670.87616
206.488	-778.81901
206.71	-1886.44396
206.932	-1299.33874
207.153	-974.83125
207.375	-877.50192
207.597	-1068.24111
207.819	-837.52666
208.041	-1517.60533
208.262	-3169.51339
208.484	-2638.92992
208.706	-2228.97095
208.927	-3297.70834
209.149	-1264.27133
209.371	-1158.35597
209.593	-8743.5639
209.814	-745.87364
210.036	-4339.97419
210.258	-1419.92487
210.479	-1199.80437
210.701	-2167.52656
210.922	-2585.14276
211.144	-2123.77697
211.366	-2376.62723
211.587	2445.6919
211.809	-1168.48831
212.03	-3341.49258
212.252	-3063.00082
212.473	-1102.46574
212.695	-1252.19601
212.916	-9395.78135
213.138	-7223.04434
213.359	-981.90961
213.581	-2178.16221
213.802	-7530.61849
214.024	-1423.63571
214.245	95472.1725
214.466	2433.16147
214.688	-1180.34294
214.909	-747.23956
215.131	-2388.45864
215.352	-1738.81574
215.573	-1225.24878
215.795	-1383.80181
216.016	-2321.28141
216.237	2925.64612
216.459	-1816.45684
216.68	-2196.04376
216.901	-1044.25266
217.122	-1286.99776
217.344	-1104.05324
217.565	-1274.13978
217.786	-1215.76232
218.007	-1367.61795
218.228	-927.47968
218.45	-746.98992
218.671	-6031.40607
218.892	-1060.86013
219.113	-2057.47833
219.334	-129.74252
219.555	-1144.7871
219.776	-1073.4058
219.997	-1263.30627
220.219	-1006.80001
220.44	-1573.04336
220.661	-847.34649
220.882	-1473.2938
221.103	-3239.67399
221.324	-2290.26775
221.545	-2198.58982
221.766	-1145.65007
221.987	-2664.12698
222.208	-1100.55982
222.429	-918.28957
222.65	4662.25277
222.87	5577.53421
223.091	-2644.92966
223.312	-2585.59703
223.533	-2047.17577
223.754	-1131.34977
223.975	-3288.8662
224.196	-7667.83533
224.417	-1821.04459
224.637	1622.89837
224.858	224.03687
225.079	-2442.91022
225.3	2977.29825
225.521	-831.13793
225.741	28219.94856
225.962	-1902.61885
226.183	665.82453
226.404	-3710.77649
226.624	-5092.15692
226.845	9101.31677
227.066	-6216.18568
227.286	1354.2818
227.507	332.86606
227.728	367.76211
227.948	901.88976
228.169	221.64507
228.389	243.04351
228.61	134.61584
228.831	185.11973
229.051	14.29126
229.272	102.7594
229.492	135.29044
229.713	38.63756
229.933	91.90515
230.154	76.77847
230.374	131.14803
230.595	88.87484
230.815	55.84643
231.036	93.72092
231.256	-16.83032
231.477	169.21219
231.697	102.87982
231.917	92.29664
232.138	139.38993
232.358	327.67949
232.579	267.99217
232.799	36.96323
233.019	249.16576
233.24	311.17963
233.46	98.51899
233.68	155.47523
233.901	100.12373
234.121	71.05382
234.341	25.08673
234.561	-16.68517
234.782	67.01112
235.002	178.6183
235.222	-3.61805
235.442	149.67345
235.662	69.45066
235.883	155.80526
236.103	106.91202
236.323	83.67362
236.543	66.43041
236.763	103.63648
236.983	101.32601
237.203	99.29515
237.423	139.06899
237.643	218.44396
237.864	193.74849
238.084	44.02593
238.304	60.66735
238.524	108.71418
238.744	90.08391
238.964	160.21143
239.184	139.89858
239.404	161.08816
239.624	79.10656
239.843	139.29529
240.063	76.36969
240.283	51.48143
240.503	55.92449
240.723	55.91638
240.943	31.35292
241.163	42.53724
241.383	29.11629
241.603	16.48423
241.822	19.05486
242.042	12.8887
242.262	17.352
242.482	19.76258
242.702	20.36528
242.921	6.88887
243.141	13.75744
243.361	13.41832
243.581	18.49876
243.8	15.34367
244.02	10.12848
244.24	17.27985
244.459	16.61501
244.679	34.58385
244.899	22.05196
245.118	26.02369
245.338	24.51049
245.558	28.01728
245.777	15.73111
245.997	21.30256
246.216	20.67134
246.436	12.27794
246.655	8.81649
246.875	6.73044
247.094	12.47098
247.314	4.73891
247.533	7.39436
247.753	8.23503
247.972	6.73055
248.192	2.47929
248.411	3.77904
248.631	6.62269
248.85	7.93961
249.07	7.81296
249.289	11.46377
249.508	8.08289
249.728	13.34501
249.947	12.95194
250.166	17.21126
250.386	8.72682
250.605	13.13359
250.824	22.12598
251.044	14.57448
251.263	46.9132
251.482	27.78985
251.701	24.34293
251.921	0.23465
252.14	7.38996
252.359	8.53002
252.578	19.93865
252.798	7.16228
253.017	16.52768
253.236	8.51526
253.455	10.67961
253.674	21.7338
253.893	10.70388
254.112	15.12533
254.331	22.77187
254.551	17.82462
254.77	9.47044
254.989	27.08489
255.208	19.73171
255.427	31.03982
255.646	26.76255
255.865	40.65646
256.084	17.66388
256.303	22.13593
256.522	27.39081
256.741	6.50456
256.96	7.48624
257.179	18.22687
257.397	21.49811
257.616	12.00781
257.835	12.31505
258.054	29.07371
258.273	20.41118
258.492	19.83082
258.711	13.0283
258.93	5.66956
259.148	9.41049
259.367	8.73962
259.586	10.85679
259.805	4.91376
260.023	9.25791
260.242	6.67294
260.461	5.18167
260.68	2.55595
260.898	7.62321
261.117	2.5921
261.336	1.76622
261.554	6.36948
261.773	6.33381
261.992	1.79918
262.21	6.36225
262.429	7.35148
262.648	12.30759
262.866	14.71111
263.085	10.95017
263.303	8.8903
263.522	16.48392
263.74	15.84183
263.959	28.41698
264.178	14.77094
264.396	12.951
264.615	9.14767
264.833	20.40794
265.051	18.45186
265.27	20.37439
265.488	20.18811
265.707	12.27428
265.925	20.37225
266.144	9.89807
266.362	10.93515
266.58	11.79363
266.799	9.54124
267.017	11.38353
267.235	9.75316
267.454	6.94616
267.672	3.66361
267.89	8.37451
268.109	9.01588
268.327	8.51338
268.545	1.94892
268.763	7.53594
268.982	3.29405
269.2	8.47383
269.418	6.00821
269.636	4.51238
269.854	8.33653
270.073	6.03973
270.291	3.88363
270.509	3.84829
270.727	8.40067
270.945	13.93031
271.163	13.75636
271.381	3.43158
271.599	5.61607
271.817	9.65663
272.036	3.12862
272.254	6.72147
272.472	4.54413
272.69	4.69991
272.908	4.63055
273.126	7.5963
273.344	9.71635
273.562	3.534
273.779	4.99381
273.997	7.92648
274.215	7.41877
274.433	5.37444
274.651	8.51435
274.869	7.98289
275.087	5.30743
275.305	7.67176
275.523	4.9711
275.74	5.54527
275.958	10.44349
276.176	14.88167
276.394	4.74624
276.612	6.21562
276.829	6.20119
277.047	5.40983
277.265	5.61473
277.483	6.58033
277.7	7.41417
277.918	6.5407
278.136	11.24163
278.353	5.45394
278.571	3.51689
278.789	8.79854
279.006	1.78576
279.224	5.48903
279.442	9.25158
279.659	6.89435
279.877	4.51231
280.094	9.9265
280.312	2.07603
280.529	6.35535
280.747	2.3257
280.964	5.71874
281.182	10.41064
281.399	5.46458
281.617	6.89195
281.834	4.97491
282.052	3.6428
282.269	6.04744
282.487	4.77882
282.704	4.13785
282.921	3.85832
283.139	6.17372
283.356	8.08482
283.574	7.39863
283.791	3.66531
284.008	9.5368
284.226	5.76632
284.443	6.02564
284.66	8.07162
284.877	7.04772
285.095	4.17925
285.312	3.1461
285.529	1.93636
285.746	1.80829
285.964	3.9957
286.181	2.75882
286.398	3.71417
286.615	5.10748
286.832	4.93542
287.05	1.32802
287.267	3.48508
287.484	3.66244
287.701	5.07486
287.918	4.54704
288.135	4.75017
288.352	2.26907
288.569	2.87127
288.786	4.57101
289.003	3.61665
289.22	5.71303
289.437	3.25393
289.654	5.54826
289.871	5.58066
290.088	5.32062
290.305	4.29227
290.522	3.60225
290.739	3.70982
290.956	5.77973
291.173	6.65427
291.39	6.25204
291.607	4.27434
291.824	3.68527
292.04	2.38101
292.257	5.46518
292.474	5.90916
292.691	3.92227
292.908	1.86562
293.125	3.34923
293.341	1.98286
293.558	9.11492
293.775	4.14289
293.992	4.17168
294.208	1.68806
294.425	2.80457
294.642	3.7203
294.858	5.90541
295.075	1.33234
295.292	3.79221
295.508	4.64673
295.725	6.63917
295.942	3.36795
296.158	2.44099
296.375	3.86728
296.591	3.14629
296.808	3.16886
297.024	3.84735
297.241	4.13978
297.458	4.27634
297.674	0.52228
297.891	3.43951
298.107	2.63731
298.323	2.04781
298.54	4.79192
298.756	2.36846
298.973	1.22227
299.189	5.04851
299.406	2.34653
299.622	5.11121
299.838	5.26004
300.055	4.73272
300.271	1.21057
300.487	2.09182
300.704	2.39225
300.92	1.2672
301.136	7.14438
301.353	5.30562
301.569	3.80273
301.785	4.09929
302.001	4.8383
302.218	4.18545
302.434	4.63392
302.65	1.52769
302.866	2.79842
303.083	7.2815
303.299	7.25399
303.515	3.74
303.731	4.00087
303.947	1.38639
304.163	2.61559
304.379	3.84332
304.595	4.49949
304.812	2.73972
305.028	2.30741
305.244	3.168
305.46	4.84947
305.676	4.93547
305.892	6.04064
306.108	4.45302
306.324	3.16787
306.54	6.77827
306.756	4.88185
306.972	4.37905
307.187	3.33244
307.403	6.33698
307.619	2.84514
307.835	5.79702
308.051	5.88738
308.267	2.02445
308.483	5.58537
308.699	4.55316
308.914	3.67407
309.13	3.85404
309.346	1.1616
309.562	2.08339
309.778	1.2047
309.993	4.66811
310.209	3.46245
310.425	1.82337
310.641	3.14089
310.856	1.92549
311.072	1.93636
311.288	3.33591
311.503	3.71947
311.719	0.88238
311.935	0.69382
312.15	4.08569
312.366	3.54904
312.581	4.28997
312.797	3.16083
313.013	4.67599
313.228	2.51077
313.444	3.42358
313.659	2.12164
313.875	4.22981
314.09	3.50401
314.306	5.94067
314.521	4.95518
314.737	4.8111
314.952	4.03578
315.168	3.72019
315.383	4.49236
315.599	3.48042
315.814	3.43028
316.029	5.21538
316.245	1.66461
316.46	1.09087
316.675	5.84141
316.891	7.13806
317.106	8.67415
317.321	4.70436
317.537	4.42231
317.752	5.12222
317.967	5.1901
318.183	2.83984
318.398	3.45928
318.613	5.47117
318.828	6.05586
319.043	5.40343
319.259	3.3829
319.474	4.31839
319.689	5.80393
319.904	0.92895
320.119	5.2625
320.334	4.25526
320.549	3.43413
320.765	5.87289
320.98	4.49294
321.195	5.37539
321.41	4.01733
321.625	5.22643
321.84	7.07775
322.055	6.82936
322.27	3.29273
322.485	2.26315
322.7	4.22233
322.915	5.90287
323.13	2.56111
323.345	6.42579
323.56	4.99573
323.775	5.16963
323.989	4.84626
324.204	4.25405
324.419	5.38602
324.634	1.79329
324.849	3.66221
325.064	7.17596
325.279	5.60958
325.493	4.8144
325.708	5.66046
325.923	2.63552
326.138	2.90528
326.352	6.83269
326.567	5.27988
326.782	3.51968
326.997	2.75293
327.211	4.94194
327.426	4.70422
327.641	3.54461
327.855	1.41463
328.07	4.95383
328.285	6.97182
328.499	3.67382
328.714	4.41885
328.928	5.31414
329.143	4.1233
329.358	5.97976
329.572	5.66761
329.787	6.26635
330.001	8.63535
330.216	2.00863
330.43	6.94404
330.645	6.97374
330.859	5.41269
331.074	2.71458
331.288	4.06913
331.503	7.0474
331.717	2.17765
331.931	4.12746
332.146	4.41518
332.36	7.71407
332.575	4.99546
332.789	4.6103
333.003	4.00567
333.218	5.02904
333.432	3.10339
333.646	5.44705
333.86	7.09258
334.075	7.21894
334.289	3.34296
334.503	2.50567
334.717	4.97668
334.932	4.7897
335.146	5.62509
335.36	3.12618
335.574	5.05424
335.788	4.65424
336.003	5.37755
336.217	5.26735
336.431	4.73199
336.645	3.5116
336.859	2.33508
337.073	4.01836
337.287	4.71624
337.501	2.7417
337.715	5.07389
337.929	5.48903
338.143	2.29379
338.357	4.2642
338.571	2.9238
338.785	5.10895
338.999	3.21081
339.213	3.21063
339.427	2.0198
339.641	6.08189
339.855	3.47904
340.069	2.87246
340.283	5.64581
340.497	6.75754
340.711	4.77838
340.924	3.79067
341.138	2.38523
341.352	1.97207
341.566	4.25579
341.78	1.20683
341.993	3.16865
342.207	2.5858
342.421	4.31438
342.635	3.73837
342.848	3.17972
343.062	0.55991
343.276	2.80763
343.49	7.4323
343.703	3.10668
343.917	5.38221
344.131	5.49321
344.344	2.78626
344.558	3.26934
344.771	2.39582
344.985	5.66494
345.199	6.44624
345.412	4.38006
345.626	4.49858
345.839	1.16671
346.053	2.23658
346.266	2.21448
346.48	4.7148
346.693	4.19894
346.907	4.56049
347.12	2.37888
347.334	4.04396
347.547	4.45363
347.76	3.5189
347.974	5.53542
348.187	4.33763
348.401	3.47566
348.614	2.68176
348.827	3.57855
349.041	4.74577
349.254	1.23264
349.467	3.74452
349.681	2.18612
349.894	2.95107
350.107	5.5331
350.32	6.83942
350.534	1.61763
350.747	3.40888
350.96	2.4121
351.173	2.71625
351.386	3.09501
351.6	3.02587
351.813	2.88521
352.026	3.57635
352.239	1.86511
352.452	3.30353
352.665	5.25874
352.878	3.35257
353.092	7.09904
353.305	4.94305
353.518	3.89265
353.731	2.42714
353.944	5.39387
354.157	3.07305
354.37	2.48256
354.583	2.21825
354.796	1.32629
355.009	5.31615
355.222	3.70535
355.435	3.60842
355.647	5.13117
355.86	2.08613
356.073	3.46693
356.286	2.8733
356.499	4.78482
356.712	4.37606
356.925	4.06644
357.138	5.21866
357.35	2.12702
357.563	2.97975
357.776	3.63727
357.989	3.15289
358.201	4.24248
358.414	3.71408
358.627	5.0412
358.84	3.19032
359.052	1.8609
359.265	1.85353
359.478	4.82797
359.69	-0.12591
359.903	4.57489
360.116	4.71128
360.328	1.05079
360.541	4.5005
360.753	2.06414
360.966	2.70448
361.179	2.69578
361.391	2.56488
361.604	1.83669
361.816	2.59242
362.029	2.30482
362.241	1.89422
362.454	2.40404
362.666	1.89988
362.879	3.20456
363.091	2.62111
363.304	2.04325
363.516	2.89543
363.728	1.52256
363.941	3.95136
364.153	2.51104
364.366	0.27457
364.578	1.78603
364.79	3.6982
365.003	3.04586
365.215	2.66248
365.427	3.9391
365.639	4.83296
365.852	3.53361
366.064	5.58664
366.276	2.5911
366.488	3.82937
366.701	2.68746
366.913	2.89012
367.125	3.15801
367.337	2.29925
367.549	2.57402
367.762	3.27954
367.974	3.15556
368.186	2.3997
368.398	4.54958
368.61	4.15521
368.822	4.23409
369.034	3.14369
369.246	4.09944
369.458	6.53665
369.67	2.01154
369.882	5.89687
370.094	0.62897
370.306	5.67044
370.518	2.84237
370.73	2.46055
370.942	2.29032
371.154	3.1336
371.366	2.5817
371.578	3.6937
371.79	2.29168
372.002	4.8786
372.214	5.598
372.425	3.56901
372.637	5.18587
372.849	3.67389
373.061	0.323
373.273	4.10902
373.484	3.89102
373.696	4.5135
373.908	0.27354
374.12	4.98562
374.331	3.85709
374.543	2.39415
374.755	1.99327
374.967	3.49425
375.178	4.54445
375.39	2.96858
375.602	3.36454
375.813	1.54091
376.025	1.53294
376.236	3.29329
376.448	3.50019
376.66	2.77565
376.871	2.68307
377.083	4.48691
377.294	4.73518
377.506	2.68111
377.717	4.99179
377.929	3.55774
378.14	2.28291
378.352	4.02808
378.563	3.87256
378.775	4.96608
378.986	2.30341
379.197	3.54077
379.409	2.62883
379.62	4.49397
379.832	3.50607
380.043	3.17009
380.254	3.71724
380.466	1.73749
380.677	6.99713
380.888	6.36896
381.1	6.91474
381.311	6.68937
381.522	3.38666
381.733	7.51414
381.945	3.06509
382.156	3.55054
382.367	2.78471
382.578	7.09541
382.789	7.12055
383.001	2.8405
383.212	5.59559
383.423	5.66506
383.634	4.89027
383.845	4.22079
384.056	3.02
384.267	3.54553
384.478	3.38199
384.69	2.04949
384.901	4.33358
385.112	4.16024
385.323	5.75097
385.534	4.11198
385.745	3.96315
385.956	4.25475
386.167	2.34043
386.378	4.46956
386.588	2.21753
386.799	2.70758
387.01	1.55291
387.221	4.80715
387.432	3.57444
387.643	6.13527
387.854	3.34755
388.065	3.23962
388.275	3.47722
388.486	3.1617
388.697	3.5787
388.908	3.14771
389.119	5.21826
389.329	6.01201
389.54	3.91163
389.751	4.19106
389.962	5.52539
390.172	4.1628
390.383	3.27437
390.594	3.04813
390.804	2.96053
391.015	3.10382
391.226	3.89645
391.436	4.5878
391.647	4.18397
391.858	4.64892
392.068	1.90071
392.279	2.37641
392.489	4.06503
392.7	5.13933
392.91	2.51757
393.121	2.99481
393.331	4.46579
393.542	5.34255
393.752	4.81558
393.963	4.26699
394.173	4.00769
394.384	4.7402
394.594	3.84496
394.804	2.49774
395.015	4.21656
395.225	4.7802
395.436	2.51293
395.646	4.61965
395.856	3.234
396.067	2.40343
396.277	5.30515
396.487	4.72138
396.697	4.45148
396.908	5.10978
397.118	5.12913
397.328	4.49095
397.538	5.51564
397.749	3.3693
397.959	5.43688
398.169	5.21311
398.379	2.7749
398.589	5.35333
398.8	4.51603
399.01	4.45486
399.22	3.89914
399.43	7.17319
399.64	4.07616
399.85	5.32132
400.06	4.30859
400.27	3.66525
400.48	4.49617
400.69	6.21678
400.9	3.62968
401.11	3.45144
401.32	5.49626
401.53	4.11992
401.74	6.6039
401.95	5.59079
402.16	3.48712
402.37	5.33238
402.58	3.98155
402.79	5.55321
403	5.84477
403.209	3.99722
403.419	5.74206
403.629	4.07709
403.839	5.75052
404.049	5.81321
404.258	3.9281
404.468	3.69437
404.678	5.49814
404.888	5.79548
405.097	3.93871
405.307	4.57506
405.517	5.49504
405.727	5.0661
405.936	4.43765
406.146	5.21054
406.356	6.53307
406.565	4.77836
406.775	4.23904
406.984	4.2744
407.194	6.93523
407.404	5.17378
407.613	5.41544
407.823	5.95547
408.032	6.47405
408.242	6.36269
408.451	4.34512
408.661	4.93632
408.87	7.43453
409.08	4.40242
409.289	5.69571
409.499	5.49139
409.708	5.45476
409.918	2.87788
410.127	5.29812
410.336	7.27602
410.546	6.1255
410.755	4.97962
410.964	4.65147
411.174	4.37149
411.383	6.00169
411.592	5.80145
411.802	4.16154
412.011	6.54385
412.22	5.39415
412.429	7.26147
412.639	7.15952
412.848	7.17364
413.057	7.59839
413.266	7.1537
413.475	5.58477
413.685	6.61228
413.894	6.77736
414.103	7.22787
414.312	6.54267
414.521	5.78104
414.73	6.15891
414.939	8.11903
415.148	6.50358
415.357	6.30175
415.566	5.39213
415.776	5.48553
415.985	5.27073
416.194	6.76562
416.403	7.91845
416.611	4.45423
416.82	5.21595
417.029	6.08437
417.238	5.13912
417.447	4.99903
417.656	5.40944
417.865	5.2217
418.074	5.5383
418.283	5.83492
418.492	6.89744
418.7	6.62042
418.909	7.68708
419.118	6.04908
419.327	6.43554
419.536	6.15859
419.744	5.46941
419.953	7.07851
420.162	6.97737
420.371	5.44663
420.579	5.27193
420.788	6.55111
420.997	6.59196
421.205	6.46059
421.414	6.22813
421.623	6.24274
421.831	5.58646
422.04	6.66904
422.249	5.57776
422.457	6.32361
422.666	5.74212
422.874	6.98766
423.083	7.11296
423.291	6.88382
423.5	6.5557
423.708	6.61873
423.917	7.22206
424.125	6.5307
424.334	6.20878
424.542	8.38626
424.751	7.34107
424.959	7.13666
425.167	7.62608
425.376	7.48528
425.584	6.73199
425.793	7.14191
426.001	6.03753
426.209	7.54845
426.418	6.09877
426.626	6.38075
426.834	6.07276
427.042	6.83035
427.251	6.15379
427.459	7.63912
427.667	6.97267
427.875	5.58734
428.084	6.35748
428.292	8.19083
428.5	7.46266
428.708	6.00815
428.916	5.97892
429.124	7.09873
429.333	6.75805
429.541	6.86604
429.749	7.0476
429.957	6.79195
430.165	9.40041
430.373	5.76581
430.581	7.15094
430.789	8.5562
430.997	6.42301
431.205	6.42909
431.413	7.10751
431.621	6.71506
431.829	7.68729
432.037	6.90072
432.245	7.87069
432.453	7.65025
432.661	7.03425
432.869	9.28164
433.076	6.28394
433.284	7.09217
433.492	7.885
433.7	8.46757
433.908	6.92279
434.116	7.30485
434.323	7.39815
434.531	7.17424
434.739	7.61623
434.947	8.1442
435.154	8.03207
435.362	7.4477
435.57	7.08362
435.778	6.85635
435.985	7.70733
436.193	6.91591
436.401	8.7076
436.608	7.40447
436.816	6.99567
437.023	9.22949
437.231	9.39549
437.439	7.91129
437.646	8.18667
437.854	7.99325
438.061	8.25241
438.269	7.48554
438.476	8.33829
438.684	7.95292
438.891	7.39373
439.099	7.04554
439.306	6.32885
439.514	6.74986
439.721	8.10527
439.929	7.16681
440.136	8.19627
440.343	8.06066
440.551	7.43792
440.758	9.37167
440.965	8.27578
441.173	7.75439
441.38	7.09955
441.587	8.07938
441.795	7.27416
442.002	7.95059
442.209	8.08382
442.416	8.32569
442.624	8.30909
442.831	8.11258
443.038	7.29505
443.245	6.83997
443.452	7.39041
443.66	8.71205
443.867	7.22223
444.074	7.55368
444.281	7.31685
444.488	7.70945
444.695	7.92782
444.902	7.46435
445.109	8.483
445.316	7.68127
445.523	7.55941
445.73	7.13422
445.937	7.98562
446.144	8.3352
446.351	8.20268
446.558	7.18152
446.765	8.54381
446.972	8.65885
447.179	7.8591
447.386	8.93108
447.593	7.53257
447.8	8.81108
448.007	7.67022
448.214	7.85842
448.42	7.35462
448.627	9.03962
448.834	7.71069
449.041	7.61495
449.248	7.69989
449.454	8.82776
449.661	9.93857
449.868	7.63365
450.075	7.47441
450.281	6.05011
450.488	6.95152
450.695	7.35165
450.901	7.17886
451.108	7.80366
451.315	9.14666
451.521	7.91374
451.728	9.18271
451.935	7.45454
452.141	7.98829
452.348	8.07013
452.554	8.05743
452.761	7.69791
452.967	9.73898
453.174	8.25607
453.38	8.40135
453.587	6.83025
453.793	8.1393
454	8.90654
454.206	10.29901
454.413	9.33352
454.619	8.56194
454.825	7.41663
455.032	8.83403
455.238	9.1671
455.445	6.9119
455.651	8.39328
455.857	6.28879
456.064	7.92013
456.27	7.89681
456.476	8.06323
456.682	6.78308
456.889	8.53128
457.095	8.65932
457.301	10.72391
457.507	8.29836
457.714	8.56748
457.92	8.37469
458.126	7.6468
458.332	8.20262
458.538	7.5975
458.744	8.055
458.951	8.03878
459.157	9.87939
459.363	8.55517
459.569	8.23037
459.775	9.09625
459.981	7.66107
460.187	8.22658
460.393	8.82124
460.599	9.39501
460.805	8.42231
461.011	8.23702
461.217	9.10945
461.423	9.31391
461.629	8.04714
461.835	9.06282
462.041	8.13267
462.247	9.96519
462.453	8.09616
462.658	8.44472
462.864	9.17825
463.07	8.74493
463.276	8.86305
463.482	8.85937
463.688	9.99173
463.893	8.17215
464.099	8.19826
464.305	10.18433
464.511	8.29779
464.716	8.57943
464.922	9.55224
465.128	7.89134
465.333	10.5678
465.539	9.41177
465.745	8.4838
465.95	8.90765
466.156	11.59289
466.362	9.87814
466.567	8.5443
466.773	8.19689
466.978	10.38239
467.184	7.74664
467.389	6.63274
467.595	9.38296
467.8	7.79192
468.006	10.17492
468.211	10.02935
468.417	7.62575
468.622	9.53418
468.828	9.50045
469.033	8.94222
469.239	11.8461
469.444	8.25514
469.649	9.70731
469.855	8.74631
470.06	9.00925
470.266	7.79724
470.471	9.58056
470.676	9.34415
470.881	7.25078
471.087	9.74897
471.292	10.60868
471.497	7.57649
471.703	8.69613
471.908	8.35379
472.113	9.23461
472.318	9.62477
472.523	7.90014
472.729	9.47171
472.934	9.3009
473.139	8.72327
473.344	9.60242
473.549	10.3236
473.754	8.16849
473.959	10.98904
474.164	8.14016
474.369	8.90945
474.575	9.91539
474.78	9.0824
474.985	8.65197
475.19	7.42241
475.395	8.29522
475.6	8.91927
475.804	10.51458
476.009	9.12442
476.214	9.12268
476.419	8.63627
476.624	7.32798
476.829	8.3535
477.034	9.66325
477.239	8.20158
477.444	9.28333
477.648	9.65331
477.853	9.70825
478.058	8.75399
478.263	8.4848
478.468	7.94822
478.672	8.16502
478.877	10.25245
479.082	10.84418
479.287	9.42017
479.491	9.17795
479.696	8.12232
479.901	9.93821
480.105	9.8198
480.31	8.41447
480.515	9.00312
480.719	11.47408
480.924	8.54903
481.128	7.89578
481.333	9.34772
481.538	9.46245
481.742	8.77662
481.947	9.40439
482.151	9.52315
482.356	9.07157
482.56	9.61503
482.765	9.46539
482.969	11.37557
483.174	12.9828
483.378	14.97551
483.582	15.13959
483.787	16.55067
483.991	16.81592
484.196	16.91241
484.4	16.61015
484.604	16.81689
484.809	15.089
485.013	14.44791
485.217	13.07324
485.422	11.61072
485.626	10.62423
485.83	10.01635
486.034	9.62893
486.239	9.93549
486.443	10.11481
486.647	10.26241
486.851	11.13489
487.055	12.04153
487.26	11.7768
487.464	12.42098
487.668	11.99423
487.872	12.14319
488.076	12.61099
488.28	12.07576
488.484	11.17588
488.688	10.90794
488.892	10.52722
489.096	9.91762
489.3	8.94456
489.504	9.1716
489.708	9.66624
489.912	9.75827
490.116	9.81161
490.32	8.94581
490.524	9.7266
490.728	9.85064
490.932	9.51824
491.136	9.51057
491.34	10.64569
491.544	10.90667
491.748	10.6384
491.951	10.57985
492.155	10.28142
492.359	10.14627
492.563	8.90446
492.767	8.81218
492.97	8.92655
493.174	8.63003
493.378	8.98597
493.582	8.5467
493.785	9.3338
493.989	9.45069
494.193	9.65609
494.396	9.16913
494.6	10.20236
494.804	9.50046
495.007	8.91553
495.211	9.02915
495.414	9.46908
495.618	9.75233
495.822	10.79168
496.025	9.58569
496.229	10.53849
496.432	8.96804
496.636	9.6113
496.839	9.35568
497.043	10.91932
497.246	9.67457
497.45	9.15689
497.653	9.41729
497.856	9.74509
498.06	8.56472
498.263	9.17113
498.467	9.04327
498.67	10.38781
498.873	9.98646
499.077	9.13278
499.28	9.25583
499.483	9.71642
499.686	10.2212
499.89	9.90977
500.093	10.17803
500.296	8.80061
500.499	10.93317
500.703	9.5944
500.906	9.60894
501.109	11.41358
501.312	9.63181
501.515	9.41392
501.719	9.97021
501.922	11.03996
502.125	9.9957
502.328	9.62427
502.531	8.44955
502.734	9.68511
502.937	7.90693
503.14	9.83876
503.343	8.67206
503.546	9.43088
503.749	9.2821
503.952	10.33314
504.155	8.96735
504.358	10.34491
504.561	9.77062
504.764	8.3512
504.967	9.63385
505.17	9.64417
505.373	11.22888
505.576	9.80472
505.778	10.27481
505.981	9.20637
506.184	11.00236
506.387	8.13542
506.59	11.44669
506.793	10.95284
506.995	10.38098
507.198	7.89142
507.401	10.05612
507.604	10.35719
507.806	8.99925
508.009	9.13567
508.212	10.27538
508.414	9.1883
508.617	9.22034
508.82	9.67251
509.022	10.97894
509.225	10.0436
509.427	8.12884
509.63	10.99445
509.833	9.60512
510.035	9.41845
510.238	8.33639
510.44	10.68201
510.643	7.75834
510.845	11.92333
511.048	10.21253
511.25	9.3886
511.453	9.66364
511.655	10.13425
511.858	9.4116
512.06	10.64941
512.262	9.78826
512.465	10.65235
512.667	9.30059
512.869	8.83126
513.072	10.13355
513.274	10.59036
513.476	10.16633
513.679	10.47411
513.881	8.74063
514.083	11.29725
514.286	9.09189
514.488	9.29712
514.69	8.82062
514.892	8.59292
515.094	10.51066
515.297	9.28419
515.499	9.80691
515.701	9.10709
515.903	11.63499
516.105	11.65271
516.307	10.61138
516.509	8.02851
516.711	8.75722
516.913	10.08991
517.116	9.95866
517.318	9.51329
517.52	11.21771
517.722	10.61656
517.924	8.83774
518.126	10.46807
518.328	9.3128
518.529	10.24452
518.731	11.25907
518.933	9.43761
519.135	9.80745
519.337	10.75661
519.539	10.1819
519.741	8.19803
519.943	9.55185
520.145	9.47273
520.346	10.18621
520.548	9.39873
520.75	10.11337
520.952	9.31835
521.153	10.0416
521.355	10.37952
521.557	8.726
521.759	10.17512
521.96	9.99585
522.162	8.82061
522.364	10.9591
522.565	9.21304
522.767	10.68388
522.969	11.38705
523.17	10.47212
523.372	10.33931
523.573	9.60056
523.775	9.94881
523.977	9.08702
524.178	11.55641
524.38	9.57856
524.581	10.99179
524.783	10.01727
524.984	10.72014
525.186	10.09258
525.387	10.66984
525.589	10.08123
525.79	9.56623
525.991	9.21438
526.193	10.14093
526.394	8.79323
526.596	10.12189
526.797	9.97134
526.998	9.59848
527.2	8.94472
527.401	10.54733
527.602	10.14254
527.803	11.45759
528.005	11.71721
528.206	12.74521
528.407	13.44027
528.608	13.2664
528.81	13.54767
529.011	12.83932
529.212	13.80067
529.413	12.78457
529.614	11.76782
529.815	11.29201
530.017	10.40876
530.218	9.83924
530.419	9.48773
530.62	9.94184
530.821	10.19451
531.022	9.08256
531.223	10.70876
531.424	10.4798
531.625	10.43167
531.826	10.48842
532.027	10.44164
532.228	11.47938
532.429	10.56144
532.63	10.23405
532.831	10.27879
533.032	10.21164
533.233	10.58504
533.433	10.19215
533.634	10.48175
533.835	9.71549
534.036	9.52204
534.237	9.76587
534.438	9.57967
534.638	9.06414
534.839	9.36349
535.04	10.31302
535.241	9.71987
535.441	11.61792
535.642	10.55994
535.843	9.50387
536.043	9.44986
536.244	9.73831
536.445	9.83973
536.645	10.94031
536.846	10.25798
537.047	11.10373
537.247	9.40783
537.448	9.67356
537.648	9.93215
537.849	9.81064
538.049	9.77024
538.25	10.69063
538.451	10.46222
538.651	9.24021
538.851	10.50725
539.052	11.56649
539.252	11.10772
539.453	10.216
539.653	10.63652
539.854	10.44194
540.054	10.49963
540.254	11.38475
540.455	11.31888
540.655	10.10973
540.855	10.55271
541.056	10.87415
541.256	10.06538
541.456	10.96595
541.657	10.05483
541.857	10.97135
542.057	9.4641
542.257	9.40291
542.458	10.35134
542.658	10.59609
542.858	9.28219
543.058	10.92805
543.258	10.50695
543.458	9.22614
543.659	8.98214
543.859	10.77981
544.059	10.78727
544.259	10.01333
544.459	10.85724
544.659	9.66477
544.859	10.56929
545.059	9.75649
545.259	10.82299
545.459	10.51004
545.659	11.33308
545.859	10.39267
546.059	10.7802
546.259	9.62295
546.459	8.93429
546.659	9.35156
546.859	10.86731
547.059	10.52573
547.258	10.53855
547.458	10.58415
547.658	9.06872
547.858	9.11164
548.058	10.17568
548.258	9.75967
548.457	9.00362
548.657	12.8326
548.857	9.91776
549.057	11.00373
549.256	10.92783
549.456	10.01556
549.656	8.19469
549.855	12.54097
550.055	10.1111
550.255	12.82342
550.454	11.1508
550.654	11.55452
550.853	12.3609
551.053	11.93532
551.253	10.91687
551.452	11.15742
551.652	9.21323
551.851	8.67649
552.051	10.22607
552.25	10.02401
552.45	9.56199
552.649	10.26803
552.849	9.41146
553.048	10.35869
553.248	11.23401
553.447	9.46543
553.646	11.48109
553.846	11.97866
554.045	11.6781
554.244	9.01813
554.444	12.55789
554.643	9.59626
554.842	12.41243
555.042	13.31932
555.241	9.99702
555.44	9.54194
555.64	11.15074
555.839	13.31387
556.038	11.60724
556.237	10.07838
556.436	10.48914
556.636	11.29297
556.835	9.47895
557.034	13.01088
557.233	10.70328
557.432	9.19538
557.631	12.35763
557.83	10.52492
558.029	9.8811
558.228	10.054
558.427	9.34563
558.626	11.34708
558.825	9.58322
559.024	11.08564
559.223	13.30351
559.422	10.58668
559.621	11.31264
559.82	7.67038
560.019	11.00623
560.218	10.41963
560.417	7.42237
560.616	10.44202
560.815	15.27986
561.014	8.87979
561.212	12.79787
561.411	11.13452
561.61	8.70937
561.809	10.24956
562.008	12.73876
562.206	10.52028
562.405	11.61536
562.604	10.4552
562.803	10.8767
563.001	10.51714
563.2	8.82253
563.399	11.25384
563.597	9.10152
563.796	11.0045
563.995	9.10832
564.193	11.69899
564.392	10.13125
564.59	13.99494
564.789	8.3709
564.988	10.45482
565.186	11.07713
565.385	10.56286
565.583	10.10049
565.782	10.56784
565.98	10.23018
566.179	10.42008
566.377	9.10827
566.575	9.60466
566.774	11.87663
566.972	11.5973
567.171	13.14317
567.369	12.11331
567.567	10.63646
567.766	10.79507
567.964	7.76542
568.162	11.5058
568.361	11.83677
568.559	10.54279
568.757	11.58101
568.956	10.78855
569.154	10.50451
569.352	11.88164
569.55	10.56726
569.748	10.96829
569.947	9.77559
570.145	9.82524
570.343	9.26234
570.541	12.34587
570.739	8.79371
570.937	10.91553
571.135	11.34231
571.333	13.03952
571.532	12.87031
571.73	11.09979
571.928	12.14277
572.126	11.20499
572.324	9.92829
572.522	12.22294
572.72	14.07347
572.918	10.58298
573.116	11.06005
573.313	10.59937
573.511	10.45646
573.709	10.21047
573.907	11.59631
574.105	10.10184
574.303	8.55042
574.501	8.84805
574.699	11.19837
574.896	11.26849
575.094	11.57151
575.292	8.99131
575.49	11.8398
575.688	10.44714
575.885	12.5615
576.083	13.33175
576.281	11.40525
576.478	10.01179
576.676	11.51965
576.874	9.19835
577.071	10.46168
577.269	14.52482
577.467	10.32166
577.664	10.95999
577.862	11.99843
578.059	9.91476
578.257	12.22888
578.455	10.76892
578.652	10.87292
578.85	8.27053
579.047	11.31783
579.245	11.21392
579.442	10.97848
579.64	11.0213
579.837	8.31688
580.034	15.0622
580.232	10.64552
580.429	9.54665
580.627	12.13739
580.824	13.3362
581.021	12.18253
581.219	10.4576
581.416	9.82329
581.613	13.77692
581.811	13.55077
582.008	9.96214
582.205	13.12066
582.402	11.76965
582.6	14.93913
582.797	11.72187
582.994	12.4284
583.191	12.44129
583.388	11.61386
583.586	12.5935
583.783	13.5995
583.98	10.2197
584.177	11.9345
584.374	6.47863
584.571	11.47185
584.768	11.28679
584.965	11.25478
585.162	12.66822
585.359	14.35353
585.556	11.36372
585.753	12.16921
585.95	9.48084
586.147	10.17122
586.344	12.24649
586.541	11.21122
586.738	9.37188
586.935	11.36502
587.132	10.54735
587.329	13.56102
587.526	11.18121
587.722	20.04073
587.919	9.15877
588.116	12.30975
588.313	14.30643
588.51	15.43413
588.706	11.1646
588.903	12.66274
589.1	13.72419
589.297	16.49094
589.493	11.55748
589.69	12.43787
589.887	10.73942
590.083	9.63141
590.28	10.36266
590.477	13.18796
590.673	12.67268
590.87	13.85134
591.067	10.84207
591.263	12.48606
591.46	12.65702
591.656	11.24698
591.853	14.39301
592.049	10.11354
592.246	10.75036
592.442	14.16488
592.639	12.97898
592.835	9.72374
593.032	12.67828
593.228	9.39128
593.425	9.44591
593.621	9.15126
593.817	11.958
594.014	10.51963
594.21	11.73527
594.406	13.28752
594.603	12.63585
594.799	10.7217
594.995	7.82377
595.192	13.73917
595.388	10.88369
595.584	10.81723
595.78	8.97997
595.977	15.23474
596.173	14.80207
596.369	11.31557
596.565	9.82017
596.761	9.02846
596.957	13.5736
597.154	9.84557
597.35	10.39647
597.546	9.81262
597.742	11.77034
597.938	11.30685
598.134	9.49806
598.33	11.1849
598.526	13.92092
598.722	12.00174
598.918	14.52659
599.114	12.52557
599.31	10.08964
599.506	12.19015
599.702	10.3576
599.898	12.49927
600.094	14.01591
600.29	13.58642
600.485	13.68763
600.681	11.08274
600.877	15.40284
601.073	12.74516
601.269	15.93051
601.465	14.99503
601.66	10.72211
601.856	9.01992
602.052	15.27361
602.248	11.73178
602.443	8.33128
602.639	9.87124
602.835	10.58618
603.03	10.47333
603.226	13.60151
603.422	10.36078
603.617	11.2302
603.813	10.86014
604.009	10.61812
604.204	13.34077
604.4	8.54345
604.595	12.82814
604.791	9.37596
604.986	11.69058
605.182	9.85226
605.377	10.31454
605.573	10.2542
605.768	11.34339
605.964	12.07769
606.159	12.11657
606.355	13.42417
606.55	10.63528
606.746	13.32961
606.941	11.48563
607.136	15.57213
607.332	17.50073
607.527	9.66859
607.722	12.81987
607.918	11.91447
608.113	10.61713
608.308	13.68644
608.503	13.08367
608.699	12.89039
608.894	12.78787
609.089	10.28865
609.284	12.25016
609.479	10.91433
609.675	12.74086
609.87	10.88618
610.065	12.72005
610.26	13.42857
610.455	13.05616
610.65	11.03549
610.845	11.98661
611.04	13.17735
611.235	11.66093
611.43	11.29357
611.625	9.65241
611.82	14.99406
612.015	10.56303
612.21	15.54518
612.405	9.29843
612.6	16.84926
612.795	15.14592
612.99	14.17075
613.185	10.58084
613.38	11.00022
613.575	13.1909
613.77	18.77282
613.965	9.40608
614.159	10.93981
614.354	15.60881
614.549	14.99858
614.744	14.49229
614.938	10.79613
615.133	9.84773
615.328	15.59936
615.523	15.82278
615.717	19.41678
615.912	11.69952
616.107	13.32558
616.301	12.22285
616.496	11.79049
616.691	17.23827
616.885	14.62509
617.08	19.00106
617.274	16.20548
617.469	18.41709
617.664	14.53646
617.858	12.19017
618.053	13.88806
618.247	12.49262
618.442	8.62949
618.636	16.58987
618.831	12.11562
619.025	12.24134
619.219	19.34611
619.414	5.29233
619.608	13.37331
619.803	11.19572
619.997	18.38475
620.191	16.3107
620.386	14.37709
620.58	13.55496
620.774	9.25646
620.969	9.86661
621.163	13.85676
621.357	10.6723
621.551	12.57649
621.746	13.77943
621.94	13.53889
622.134	22.16323
622.328	18.3571
622.522	9.52756
622.716	16.43713
622.911	15.83268
623.105	16.06008
623.299	14.57188
623.493	21.7346
623.687	11.75429
623.881	12.66474
624.075	15.16501
624.269	16.70786
624.463	9.32484
624.657	10.04718
624.851	15.0341
625.045	16.23797
625.239	16.19551
625.433	11.94312
625.627	17.66004
625.821	12.23659
626.015	11.90258
626.209	13.55802
626.403	10.16383
626.596	14.37805
626.79	15.13822
626.984	10.25919
627.178	14.30326
627.372	14.37434
627.565	14.84443
627.759	9.448
627.953	10.23251
628.147	14.02053
628.34	14.68239
628.534	18.63648
628.728	12.8544
628.921	15.789
629.115	15.27168
629.309	16.01704
629.502	16.38555
629.696	14.23503
629.89	13.27507
630.083	14.37194
630.277	15.17135
630.47	18.69635
630.664	13.40892
630.857	10.16498
631.051	15.73259
631.244	16.92744
631.438	16.72328
631.631	11.83142
631.825	17.54744
632.018	16.83367
632.212	19.59691
632.405	17.57563
632.598	12.67501
632.792	14.65064
632.985	8.31527
633.178	13.7019
633.372	14.573
633.565	14.8133
633.758	18.21735
633.952	12.34565
634.145	12.20147
634.338	14.23302
634.531	13.17574
634.724	12.53405
634.918	14.34366
635.111	13.76246
635.304	13.38548
635.497	20.00394
635.69	15.0833
635.883	17.90143
636.077	10.99827
636.27	16.1081
636.463	15.55726
636.656	16.25936
636.849	13.65167
637.042	16.17641
637.235	19.64966
637.428	16.61185
637.621	16.08139
637.814	18.76791
638.007	19.67594
638.2	20.30189
638.393	21.4973
638.586	11.77851
638.778	14.1686
638.971	15.91257
639.164	21.3324
639.357	17.41561
639.55	19.96446
639.743	18.11273
639.935	18.56043
640.128	21.8033
640.321	17.91213
640.514	16.51133
640.707	24.20566
640.899	18.44715
641.092	11.63818
641.285	39.6455
641.477	9.55507
641.67	24.21564
641.863	21.04641
642.055	17.31178
642.248	16.56081
642.441	15.67879
642.633	17.38745
642.826	22.41709
643.018	21.22495
643.211	22.74527
643.403	22.0232
643.596	24.26223
643.788	23.48164
643.981	15.80938
644.173	20.32451
644.366	16.33273
644.558	12.16675
644.751	20.46638
644.943	12.97086
645.135	23.43119
645.328	23.26948
645.52	20.11275
645.712	20.89536
645.905	29.61079
646.097	13.86202
646.289	18.99045
646.482	24.50554
646.674	15.833
646.866	21.47955
647.058	19.94099
647.251	14.22799
647.443	15.1888
647.635	17.62165
647.827	14.28438
648.019	14.44619
648.211	18.23951
648.404	18.86415
648.596	23.62443
648.788	19.34728
648.98	18.59428
649.172	19.24807
649.364	19.15121
649.556	11.93594
649.748	27.03649
649.94	14.87263
650.132	20.24121
650.324	15.08
650.516	15.82965
650.708	22.34176
650.9	12.96991
651.092	12.1574
651.284	12.32495
651.476	14.42939
651.667	19.59143
651.859	22.31381
652.051	17.64893
652.243	18.22071
652.435	16.24221
652.627	19.1613
652.818	19.62029
653.01	12.19195
653.202	15.21228
653.394	17.29441
653.585	20.22103
653.777	35.02772
653.969	23.31882
654.16	23.07641
654.352	15.18244
654.544	18.6111
654.735	22.82433
654.927	19.42202
655.118	24.55911
655.31	21.97697
655.502	22.24758
655.693	17.08218
655.885	21.95161
656.076	24.83487
656.268	19.35751
656.459	24.33255
656.651	23.84844
656.842	16.85232
657.034	16.15961
657.225	22.46874
657.416	24.6514
657.608	25.42918
657.799	18.38225
657.99	23.42403
658.182	15.80015
658.373	16.38613
658.564	21.46442
658.756	18.55773
658.947	17.79596
659.138	14.58411
659.33	15.51464
659.521	14.8983
659.712	16.54247
659.903	16.48496
660.094	15.22724
660.286	11.7503
660.477	24.10402
660.668	19.92729
660.859	17.41174
661.05	12.84258
661.241	20.39502
661.432	20.71509
661.623	17.37631
661.814	16.26402
662.006	12.06252
662.197	21.2753
662.388	23.59805
662.579	20.4541
662.77	25.72049
662.96	31.17186
663.151	24.08608
663.342	12.56434
663.533	23.05511
663.724	19.82195
663.915	27.42818
664.106	19.97863
664.297	28.65079
664.488	23.84096
664.678	18.32731
664.869	23.60802
665.06	24.4955
665.251	22.2476
665.442	23.59404
665.632	17.41531
665.823	29.90299
666.014	9.22924
666.204	23.65102
666.395	27.55378
666.586	34.14586
666.776	24.79154
666.967	29.32039
667.158	21.9289
667.348	28.8399
667.539	16.2964
667.729	25.93162
667.92	18.00945
668.111	26.08555
668.301	24.40949
668.492	20.06699
668.682	21.61541
668.873	20.47813
669.063	15.92682
669.253	21.45339
669.444	25.31624
669.634	20.91444
669.825	29.19152
670.015	25.95221
670.206	17.80286
670.396	31.46268
670.586	20.80721
670.777	24.23799
670.967	12.36215
671.157	21.07227
671.347	19.96995
671.538	29.4622
671.728	24.02288
671.918	31.74331
672.108	27.95642
672.299	22.60788
672.489	23.70026
672.679	19.36018
672.869	25.93365
673.059	31.27007
673.249	26.00321
673.44	18.48721
673.63	21.86102
673.82	27.44417
674.01	18.73393
674.2	26.16465
674.39	37.70054
674.58	26.29056
674.77	23.9368
674.96	24.21619
675.15	44.64447
675.34	29.23796
675.53	24.06441
675.72	21.65549
675.91	17.26219
676.099	33.0323
676.289	34.80555
676.479	29.26144
676.669	22.17569
676.859	26.86629
677.049	19.45342
677.238	24.57885
677.428	33.48413
677.618	22.60572
677.808	29.13583
677.997	27.13591
678.187	18.47352
678.377	23.828
678.567	21.77628
678.756	21.85627
678.946	22.15433
679.136	16.1562
679.325	18.94954
679.515	18.65538
679.704	16.46527
679.894	25.18524
680.084	22.62156
680.273	28.19757
680.463	17.68567
680.652	17.89917
680.842	21.43057
681.031	25.8684
681.221	17.52682
681.41	24.98191
681.6	21.45316
681.789	25.86799
681.978	28.74088
682.168	23.75177
682.357	24.74744
682.547	25.89286
682.736	24.3424
682.925	29.34474
683.115	29.12824
683.304	28.50212
683.493	26.33206
683.682	26.83208
683.872	26.39793
684.061	32.95394
684.25	29.41911
684.439	35.32636
684.629	29.30923
684.818	45.20573
685.007	25.47756
685.196	24.34885
685.385	34.84164
685.574	29.54209
685.763	28.99581
685.952	27.09892
686.142	19.71031
686.331	35.12846
686.52	16.62388
686.709	35.7227
686.898	35.35687
687.087	30.67493
687.276	35.74131
687.465	32.50647
687.654	24.42381
687.842	35.56141
688.031	18.8499
688.22	33.45572
688.409	28.98242
688.598	28.46245
688.787	41.55052
688.976	27.37214
689.165	37.91449
689.353	25.16703
689.542	29.67177
689.731	32.12816
689.92	39.38576
690.108	34.79696
690.297	25.68335
690.486	28.95045
690.675	33.78084
690.863	39.57754
691.052	39.58303
691.241	31.21699
691.429	30.92983
691.618	37.15124
691.806	22.67821
691.995	28.22821
692.184	29.24859
692.372	26.95967
692.561	30.0283
692.749	30.39014
692.938	45.2334
693.126	34.45087
693.315	27.7431
693.503	34.3063
693.692	35.52666
693.88	37.19746
694.068	44.76891
694.257	30.40925
694.445	34.04587
694.634	19.29318
694.822	38.76203
695.01	39.93329
695.199	39.37366
695.387	43.61366
695.575	40.95556
695.763	31.67243
695.952	30.558
696.14	22.22497
696.328	28.00743
696.516	32.25361
696.705	32.71911
696.893	32.69742
697.081	20.09742
697.269	35.40425
697.457	24.18475
697.645	22.27999
697.833	34.73791
698.021	24.1557
698.21	25.19502
698.398	26.4465
698.586	20.41128
698.774	18.61841
698.962	24.17226
699.15	20.38086
699.338	17.28709
699.526	27.80871
699.714	21.35165
699.901	22.56282
700.089	30.78184
700.277	22.01945
700.465	25.60725
700.653	31.87871
700.841	30.94748
701.029	23.94045
701.217	36.37533
701.404	30.60927
701.592	40.62698
701.78	43.47824
701.968	29.28676
702.155	28.96483
702.343	23.75631
702.531	41.55271
702.718	34.88294
702.906	31.00071
703.094	28.55272
703.281	42.56793
703.469	33.12097
703.657	41.73078
703.844	59.57444
704.032	45.71251
704.219	29.01164
704.407	37.84352
704.595	44.38803
704.782	36.9308
704.97	32.34939
705.157	32.24351
705.345	48.19513
705.532	56.6776
705.719	38.43477
705.907	47.12654
706.094	37.48328
706.282	49.94136
706.469	33.85722
706.656	37.2359
706.844	35.62349
707.031	43.99463
707.218	37.3783
707.406	49.98482
707.593	44.81812
707.78	41.1676
707.968	35.78423
708.155	29.72376
708.342	41.58576
708.529	41.30768
708.716	38.72074
708.904	51.70646
709.091	42.08884
709.278	28.94776
709.465	52.88339
709.652	52.12597
709.839	49.09784
710.026	40.44824
710.213	25.82308
710.4	40.91014
710.587	45.91206
710.774	48.18977
710.961	47.50603
711.148	38.09014
711.335	48.64314
711.522	36.83578
711.709	40.1722
711.896	57.70215
712.083	45.95916
712.27	31.93192
712.457	39.83917
712.644	25.81314
712.831	56.71323
713.017	40.09621
713.204	44.49625
713.391	34.62276
713.578	50.20189
713.765	50.47611
713.951	43.79563
714.138	69.07896
714.325	46.50692
714.512	40.99944
714.698	34.81071
714.885	54.57995
715.072	43.46961
715.258	43.37703
715.445	35.43885
715.631	52.24806
715.818	19.68481
716.005	35.53037
716.191	46.20752
716.378	37.86674
716.564	48.1673
716.751	32.5182
716.937	35.66687
717.124	51.52511
717.31	34.57735
717.497	54.89988
717.683	34.33832
717.869	63.3752
718.056	38.5271
718.242	48.81357
718.429	43.2724
718.615	33.49425
718.801	43.84522
718.988	53.39519
719.174	49.65183
719.36	44.33369
719.547	57.45707
719.733	47.83575
719.919	48.54668
720.105	52.73136
720.291	44.27472
720.478	48.09475
720.664	44.58142
720.85	41.78659
721.036	79.52408
721.222	62.30057
721.408	46.03732
721.595	67.08378
721.781	65.86084
721.967	58.6106
722.153	66.30868
722.339	57.23806
722.525	54.6639
722.711	38.91211
722.897	33.16176
723.083	44.9015
723.269	61.93218
723.455	77.7389
723.641	82.86418
723.827	52.28528
724.012	55.37439
724.198	44.63823
724.384	64.47532
724.57	54.57164
724.756	34.42501
724.942	29.54333
725.127	60.31644
725.313	67.49133
725.499	66.32743
725.685	72.31259
725.87	54.31934
726.056	40.68814
726.242	67.83281
726.428	32.72628
726.613	62.74629
726.799	48.36241
726.985	39.43416
727.17	35.34225
727.356	69.34439
727.541	41.02369
727.727	48.01302
727.913	58.44126
728.098	43.22326
728.284	57.62919
728.469	35.4006
728.655	40.31062
728.84	58.74489
729.026	58.42696
729.211	61.21576
729.397	53.26086
729.582	57.07178
729.767	48.63301
729.953	53.94402
730.138	61.87029
730.323	27.37084
730.509	38.02133
730.694	67.90651
730.879	53.53313
731.065	51.8667
731.25	77.43356
731.435	57.35171
731.621	33.55408
731.806	43.40761
731.991	53.56789
732.176	33.0625
732.361	65.99199
732.547	52.7203
732.732	32.28475
732.917	76.51319
733.102	36.58853
733.287	41.34049
733.472	50.71467
733.657	50.99006
733.842	33.65964
734.027	45.22675
734.212	46.85164
734.397	39.60114
734.582	49.54717
734.767	60.5666
734.952	66.61205
735.137	24.19647
735.322	67.19997
735.507	54.92898
735.692	54.00277
735.877	80.64075
736.062	75.55549
736.247	56.54478
736.431	54.33153
736.616	69.97629
736.801	57.21831
736.986	54.67644
737.171	44.91638
737.355	41.4908
737.54	70.23792
737.725	54.43174
737.909	94.64693
738.094	48.64815
738.279	67.54206
738.463	50.51272
738.648	64.94851
738.833	60.35563
739.017	80.82519
739.202	51.28626
739.386	55.65397
739.571	44.15563
739.756	64.39571
739.94	55.71137
740.125	67.95616
740.309	45.37296
740.494	68.38679
740.678	58.71116
740.863	64.30249
741.047	59.53385
741.231	72.03959
741.416	46.58987
741.6	80.41936
741.785	49.42696
741.969	69.70746
742.153	75.32904
742.338	29.29316
742.522	57.86668
742.706	67.29116
742.89	42.86666
743.075	58.04286
743.259	81.87927
743.443	69.15595
743.627	75.92346
743.812	93.07616
743.996	36.66819
744.18	55.61664
744.364	53.33691
744.548	99.22211
744.732	57.30538
744.916	71.34129
745.1	68.03723
745.285	56.85448
745.469	66.55391
745.653	88.15219
745.837	39.91994
746.021	101.1087
746.205	79.29251
746.389	63.59646
746.573	56.45315
746.757	89.1624
746.94	55.29295
747.124	84.16234
747.308	43.40055
747.492	81.58371
747.676	50.55868
747.86	104.09335
748.044	54.77483
748.227	35.52928
748.411	128.92087
748.595	65.68984
748.779	49.40564
748.963	72.06486
749.146	64.26862
749.33	51.86648
749.514	46.25423
749.697	82.82025
749.881	51.46414
750.065	49.40068
750.248	63.39427
750.432	101.48712
750.616	62.05129
750.799	44.07627
750.983	98.15803
751.166	112.89264
751.35	42.65173
751.533	79.41666
751.717	84.74187
751.9	91.84056
752.084	57.89976
752.267	48.69227
752.451	48.54894
752.634	65.94267
752.818	73.48546
753.001	77.48443
753.184	79.57787
753.368	72.25893
753.551	16.06481
753.734	51.18026
753.918	100.15631
754.101	52.71577
754.284	75.57808
754.467	55.89852
754.651	53.18289
754.834	50.9218
755.017	82.2086
755.2	77.61457
755.384	45.8347
755.567	77.66004
755.75	80.38725
755.933	60.16588
756.116	67.73767
756.299	55.77905
756.482	49.73856
756.665	75.81346
756.848	60.47748
757.032	73.12792
757.215	44.24317
757.398	54.72865
757.581	52.33011
757.764	117.53588
757.947	65.17825
758.129	85.70195
758.312	23.02059
758.495	64.97165
758.678	61.49928
758.861	59.14638
759.044	104.06064
759.227	55.36519
759.41	52.37015
759.592	78.51333
759.775	64.69119
759.958	85.27825
760.141	45.87839
760.324	107.52035
760.506	93.21088
760.689	82.98461
760.872	112.9998
761.054	77.92058
761.237	63.12914
761.42	75.21818
761.602	82.67273
761.785	73.75828
761.968	84.69915
762.15	100.52647
762.333	64.59467
762.515	73.36472
762.698	55.5946
762.88	82.96029
763.063	72.06067
763.245	80.20516
763.428	48.32902
763.61	51.17876
763.793	39.3714
763.975	61.4659
764.158	50.34664
764.34	47.613
764.522	39.80722
764.705	50.32375
764.887	72.31923
765.069	33.98638
765.252	66.91793
765.434	69.23926
765.616	57.61205
765.799	49.58996
765.981	74.0001
766.163	46.78664
766.345	79.59642
766.528	56.06831
766.71	25.83332
766.892	64.80337
767.074	86.10336
767.256	60.66476
767.438	99.83825
767.62	72.8813
767.802	108.60799
767.985	80.14726
768.167	106.44086
768.349	55.15083
768.531	79.36659
768.713	76.68497
768.895	91.42656
769.077	77.70044
769.259	127.23155
769.441	184.21858
769.623	90.84141
769.804	111.15063
769.986	107.11688
770.168	135.2799
770.35	161.77188
770.532	113.58061
770.714	123.43884
770.896	128.70715
771.077	53.76332
771.259	125.76468
771.441	104.67899
771.623	139.23037
771.804	184.06007
771.986	57.17375
772.168	82.51951
772.35	133.84594
772.531	190.62954
772.713	106.30639
772.894	139.92688
773.076	100.10438
773.258	92.39174
773.439	144.91611
773.621	163.9547
773.802	72.06226
773.984	85.76231
774.166	109.74386
774.347	156.30325
774.529	143.47059
774.71	49.17849
774.891	101.46384
775.073	88.33945
775.254	152.23728
775.436	84.0502
775.617	176.57253
775.799	87.20517
775.98	153.94999
776.161	164.57494
776.343	166.70082
776.524	102.24827
776.705	95.86774
776.886	54.70941
777.068	116.26925
777.249	219.63349
777.43	187.84977
777.611	71.40012
777.793	92.60487
777.974	163.82611
778.155	91.22627
778.336	82.40223
778.517	188.13299
778.698	83.09203
778.879	46.95744
779.061	30.69029
779.242	122.15022
779.423	126.42297
779.604	90.8859
779.785	103.35663
779.966	116.01503
780.147	144.14837
780.328	147.42093
780.509	213.87885
780.69	130.96216
780.871	81.38127
781.051	63.21337
781.232	115.52381
781.413	107.16877
781.594	97.40141
781.775	89.00984
781.956	82.53374
782.137	47.36822
782.317	82.85061
782.498	118.60794
782.679	107.79871
782.86	112.08105
783.04	82.3302
783.221	123.70193
783.402	190.97348
783.583	108.2493
783.763	135.95936
783.944	95.31307
784.124	63.21717
784.305	167.8616
784.486	128.05267
784.666	104.86828
784.847	58.17799
785.027	217.12309
785.208	86.28132
785.388	86.83078
785.569	88.91206
785.749	94.67526
785.93	89.61078
786.11	62.26679
786.291	128.57478
786.471	117.09185
786.652	141.8581
786.832	106.06381
787.012	120.23113
787.193	67.91177
787.373	108.77228
787.553	89.65921
787.734	119.27899
787.914	94.03246
788.094	126.39731
788.275	123.97825
788.455	97.74464
788.635	67.38427
788.815	113.88551
788.995	73.41829
789.176	60.83365
789.356	79.09278
789.536	93.33431
789.716	122.06797
789.896	77.76858
790.076	84.95684
790.256	112.76555
790.436	36.79129
790.616	77.759
790.796	107.06242
790.976	88.81212
791.156	80.83667
791.336	127.85917
791.516	115.5802
791.696	101.27184
791.876	59.68461
792.056	107.93886
792.236	138.86455
792.416	132.63503
792.596	124.49432
792.776	129.02093
792.956	124.91929
793.135	164.65197
793.315	75.5969
793.495	151.04004
793.675	127.33139
793.854	140.04053
794.034	140.82577
794.214	70.66747
794.394	133.76954
794.573	150.607
794.753	109.74561
794.933	76.48282
795.112	115.92134
795.292	147.20832
795.472	188.58045
795.651	67.50382
795.831	107.42945
796.01	93.80886
796.19	97.78893
796.369	100.88598
796.549	121.634
796.728	97.02358
796.908	63.9789
797.087	71.74075
797.267	95.27626
797.446	68.32704
797.626	126.69841
797.805	121.33771
797.984	77.69551
798.164	123.70431
798.343	75.27106
798.522	112.26884
798.702	104.54004
798.881	65.86199
799.06	97.97288
799.239	48.87157
799.419	75.73447
799.598	165.41321
799.777	125.62715
799.956	153.28644
800.136	96.34314
800.315	79.79844
800.494	122.68542
800.673	147.00008
800.852	125.80838
801.031	150.72388
801.21	128.27158
801.389	94.36514
801.568	113.78038
801.747	179.71599
801.926	103.48374
802.105	163.79733
802.284	94.26747
802.463	167.64007
802.642	125.09947
802.821	119.73984
803	174.17931
803.179	140.58541
803.358	159.07082
803.537	85.25384
803.716	115.22757
803.895	87.19065
804.073	103.5533
804.252	90.86885
804.431	123.48619
804.61	106.39831
804.789	150.14228
804.967	88.95414
805.146	88.23614
805.325	186.88336
805.503	133.38482
805.682	63.76243
805.861	211.77893
806.039	161.90339
806.218	87.13146
806.397	121.42409
806.575	111.64608
806.754	122.38951
806.932	80.6163
807.111	169.9052
807.289	149.23028
807.468	106.57881
807.646	154.42208
807.825	134.09505
808.003	121.09924
808.182	144.28709
808.36	108.47843
808.539	84.39158
808.717	173.8241
808.895	87.29084
809.074	122.19987
809.252	107.83662
809.43	134.27231
809.609	155.90169
809.787	182.57011
809.965	106.8659
810.144	116.62203
810.322	100.91019
810.5	140.54686
810.678	98.23168
810.856	212.4321
811.035	154.17252
811.213	141.70047
811.391	178.02861
811.569	130.57134
811.747	244.71716
811.925	170.19961
812.103	93.07695
812.281	115.73895
812.459	193.74485
812.637	189.39296
812.816	149.78259
812.994	206.81881
813.171	164.28061
813.349	143.72997
813.527	169.38542
813.705	176.79753
813.883	230.52516
814.061	166.56576
814.239	202.51779
814.417	212.51177
814.595	140.75798
814.773	132.76895
814.95	132.71429
815.128	143.43372
815.306	124.35435
815.484	113.03399
815.662	92.05965
815.839	85.26654
816.017	94.26327
816.195	182.90436
816.372	103.35613
816.55	152.81439
816.728	193.13352
816.905	114.87365
817.083	209.75489
817.261	105.61361
817.438	237.58173
817.616	215.97591
817.793	102.44155
817.971	158.50979
818.148	149.14989
818.326	192.08323
818.503	134.81394
818.681	200.82317
818.858	111.98679
819.036	132.39916
819.213	133.45646
819.391	93.27599
819.568	96.05773
819.745	91.84883
819.923	159.50235
820.1	102.07472
820.277	89.80116
820.455	105.73642
820.632	112.40837
820.809	114.87819
820.986	73.93801
821.164	60.07708
821.341	52.87856
821.518	71.61601
821.695	52.38429
821.872	48.92203
822.05	41.04988
822.227	29.5979
822.404	31.2887
822.581	35.84357
822.758	28.15029
822.935	27.16944
823.112	31.40326
823.289	24.08905
823.466	30.01121
823.643	26.33736
823.82	32.04692
823.997	27.91465
824.174	32.76707
824.351	42.43884
824.528	41.5406
824.705	37.63883
824.882	42.95311
825.059	58.57766
825.236	42.66867
825.412	44.95941
825.589	58.21709
825.766	83.69819
825.943	55.44619
826.12	68.09161
826.296	46.71801
826.473	61.57784
826.65	62.0374
826.827	82.14431
827.003	53.35003
827.18	54.83976
827.357	62.13536
827.533	54.71651
827.71	28.52194
827.887	44.52331
828.063	51.34042
828.24	42.94054
828.416	57.71572
828.593	44.24697
828.769	62.94811
828.946	69.4355
829.122	71.92391
829.299	66.21066
829.475	38.65631
829.652	71.617
829.828	126.61635
830.005	80.97026
830.181	109.40355
830.357	81.83558
830.534	125.89504
830.71	97.67728
830.886	121.57296
831.063	118.83531
831.239	159.63282
831.415	79.06683
831.592	172.15043
831.768	110.32265
831.944	97.44335
832.12	187.14804
832.296	162.86558
832.473	148.76257
832.649	107.99184
832.825	140.96678
833.001	83.48295
833.177	138.99898
833.353	117.16738
833.529	64.06341
833.705	89.23278
833.881	64.77086
834.058	62.08302
834.234	63.21498
834.41	62.32241
834.586	48.06093
834.761	58.10736
834.937	61.99367
835.113	62.40116
835.289	55.13508
835.465	65.28615
835.641	57.08736
835.817	63.13608
835.993	112.21593
836.169	56.28967
836.344	89.9285
836.52	99.7073
836.696	104.12719
836.872	75.61294
837.048	213.59496
837.223	89.56282
837.399	184.67017
837.575	142.58018
837.75	144.61011
837.926	191.91543
838.102	334.01622
838.277	254.29236
838.453	328.5728
838.628	317.97912
838.804	133.93111
838.98	342.60677
839.155	157.49092
839.331	219.25991
839.506	163.52815
839.682	148.55348
839.857	210.63967
840.033	233.33933
840.208	113.41353
840.384	60.33778
840.559	114.77851
840.734	167.69655
840.91	263.96182
841.085	137.63653
841.26	139.33365
841.436	120.34046
841.611	111.41302
841.786	181.54006
841.962	260.1441
842.137	144.03158
842.312	93.47554
842.487	128.34655
842.663	114.11981
842.838	123.64408
843.013	516.55977
843.188	233.25323
843.363	188.54301
843.538	440.79212
843.714	421.31944
843.889	445.97766
844.064	447.73347
844.239	352.35091
844.414	494.57993
844.589	294.1764
844.764	604.08364
844.939	589.30392
845.114	799.39252
845.289	668.72884
845.464	731.69983
845.639	620.89296
845.814	233.49265
845.989	319.88285
846.163	358.15646
846.338	440.13587
846.513	710.05727
846.688	430.53528
846.863	348.33108
847.038	306.32387
847.212	342.95516
847.387	445.89084
847.562	557.24878
847.737	665.04444
847.911	192.37624
848.086	246.12821
848.261	700.689
848.435	321.86834
848.61	598.58541
848.785	272.42615
848.959	533.85455
849.134	851.57635
849.308	1234.30199
849.483	379.61827
849.658	658.3296
849.832	348.57434
850.007	272.95141
850.181	1364.71284
850.356	282.4142
850.53	1033.17877
850.705	272.33472
850.879	174.35394
851.053	348.94104
851.228	358.41329
851.402	595.82126
851.577	566.73754
851.751	1247.73057
851.925	533.42614
852.099	196.99574
852.274	274.27735
852.448	374.62916
852.622	602.40633
852.797	367.20911
852.971	406.28766
853.145	414.20449
853.319	3242.33972
853.493	624.87712
853.668	327.56073
853.842	940.35936
854.016	705.71914
854.19	742.56698
854.364	471.34331
854.538	493.62387
854.712	839.64548
854.886	389.87876
855.06	354.2563
855.234	125.3704
855.408	886.80584
855.582	798.96541
855.756	840.51518
855.93	903.38844
856.104	410.6094
856.278	731.77017
856.452	409.746
856.626	584.50307
856.8	1894.67738
856.973	555.30954
857.147	545.82669
857.321	648.73945
857.495	717.4543
857.669	483.80516
857.842	422.13836
858.016	646.54064
858.19	270.14535
858.364	3195.80978
858.537	398.39658
858.711	428.9308
858.885	410.63647
859.058	342.26568
859.232	175.96661
859.405	267.54051
859.579	758.43761
859.753	529.23562
859.926	336.63301
860.1	214.94963
860.273	571.75326
860.447	803.18254
860.62	417.2288
860.794	1435.18588
860.967	520.24027
861.141	887.17997
861.314	1992.08427
861.487	587.58504
861.661	956.4907
861.834	1186.25734
862.008	776.67018
862.181	538.075
862.354	493.03748
862.528	733.59781
862.701	366.47315
862.874	285.42529
863.047	423.60437
863.221	347.20242
863.394	183.16872
863.567	1392.09014
863.74	140.20557
863.913	1001.8077
864.087	662.67191
864.26	1041.65234
864.433	403.89298
864.606	1440.83921
864.779	449.03783
864.952	219.41986
865.125	408.23032
865.298	515.04268
865.471	440.342
865.644	1276.44479
865.817	763.75501
865.99	815.73022
866.163	1134.02545
866.336	407.42973
866.509	385.78813
866.682	374.63544
866.855	783.80546
867.028	237.7097
867.2	550.34922
867.373	127.52447
867.546	511.82438
867.719	1506.69967
867.892	656.99824
868.064	293.25674
868.237	549.37374
868.41	536.62074
868.583	259.83727
868.755	267.12909
868.928	446.99579
869.101	1528.61033
869.273	908.33868
869.446	797.53316
869.619	1185.80936
869.791	503.56343
869.964	944.1874
870.136	901.75156
870.309	582.58327
870.481	501.50013
870.654	237.2763
870.826	631.48026
870.999	335.92836
871.171	627.34024
871.344	397.37484
871.516	443.50654
871.689	345.11479
871.861	591.35201
872.033	330.2505
872.206	375.1409
872.378	753.35456
872.55	474.21225
872.723	287.93131
872.895	470.0579
873.067	874.82719
873.24	727.63488
873.412	388.05923
873.584	461.19607
873.756	447.69639
873.928	551.66936
874.101	576.44116
874.273	714.34071
874.445	179.19558
874.617	245.67471
874.789	542.71919
874.961	395.58389
875.133	658.25583
875.305	435.16877
875.477	271.46632
875.649	231.72715
875.821	280.75159
875.993	1136.73849
876.165	317.28098
876.337	520.00523
876.509	449.20359
876.681	517.58754
876.853	592.07893
877.025	528.87034
877.197	305.33147
877.369	303.74834
877.541	775.27324
877.712	137.21595
877.884	243.36155
878.056	525.26899
878.228	354.89476
878.4	572.46986
878.571	291.47756
878.743	197.40543
878.915	516.70273
879.086	261.28185
879.258	378.94664
879.43	327.76643
879.601	274.67543
879.773	315.00922
879.945	74.73504
880.116	118.90126
880.288	75.62461
880.459	90.62299
880.631	63.0761
880.802	73.95552
880.974	67.28091
881.145	45.50936
881.317	60.10213
881.488	42.28374
881.66	46.0972
881.831	41.41588
882.002	55.10198
882.174	37.96103
882.345	46.95178
882.517	24.44288
882.688	54.1244
882.859	41.33079
883.03	64.81225
883.202	63.94138
883.373	50.02351
883.544	50.08482
883.715	80.72109
883.887	71.70836
884.058	61.79626
884.229	91.83154
884.4	92.3386
884.571	112.50879
884.742	96.32153
884.914	106.85187
885.085	160.62872
885.256	237.15468
885.427	185.66606
885.598	224.92827
885.769	242.62094
885.94	223.48617
886.111	156.12398
886.282	330.38165
886.453	238.2065
886.624	175.04481
886.795	359.81517
886.966	240.35017
887.136	335.39148
887.307	218.78172
887.478	496.83588
887.649	427.80721
887.82	461.10412
887.991	358.94587
888.161	429.20708
888.332	444.82905
888.503	214.81223
888.674	684.42509
888.844	951.83585
889.015	567.43756
889.186	222.80288
889.356	765.42571
889.527	209.76079
889.698	4704.03873
889.868	373.24501
890.039	544.52689
890.209	419.63989
890.38	611.52755
890.551	586.55187
890.721	743.35942
890.892	723.31657
891.062	464.69733
891.233	578.77219
891.403	468.01308
891.574	253.28821
891.744	426.65446
891.914	531.48751
892.085	559.42192
892.255	141.47259
892.425	1161.26892
892.596	610.01111
892.766	627.33413
892.936	875.53072
893.107	733.212
893.277	311.46552
893.447	273.48196
893.618	186.40214
893.788	478.37836
893.958	221.90348
894.128	215.91233
894.298	256.66473
894.468	382.21923
894.639	171.12457
894.809	97.32836
894.979	159.56321
895.149	186.39472
895.319	141.77341
895.489	197.57125
895.659	254.52856
895.829	148.65969
895.999	155.57497
896.169	111.28179
896.339	145.11365
896.509	261.57155
896.679	300.12912
896.849	292.89993
897.019	419.36666
897.189	292.40296
897.358	303.92732
897.528	456.55269
897.698	137.57597
897.868	399.28826
898.038	1227.955
898.208	985.74945
898.377	191.95329
898.547	1240.45038
898.717	2761.25232
898.886	560.95643
899.056	1032.77483
899.226	2270.46979
899.395	996.5792
899.565	1175.59122
899.735	675.66523
899.904	2275.10473
900.074	2281.02666
900.244	476.07841
900.413	2939.48614
900.583	393.74431
900.752	692.09613
900.922	-5444.39862
901.091	104.281
901.261	1269.44356
901.43	1062.81997
901.599	809.42296
901.769	-14375.90623
901.938	2041.14069
902.108	4783.02845
902.277	7526.01515
902.446	426.07518
902.616	479.88699
902.785	575.1519
902.954	2626.76244
903.124	1246.31439
903.293	686.38304
903.462	307.31387
903.631	471.15224
903.801	403.51091
903.97	158.56187
904.139	287.31022
904.308	191.23693
904.477	164.51397
904.646	90.12156
904.816	123.06927
904.985	205.27684
905.154	296.35088
