Data from WindowProjectSample_Transmission__16__00016__02949143057821858.txt Node

Date: Mon May 05 17:04:31 EDT 2025
User: jessi
Spectrometer: SR400872
Trigger mode: 0
Integration Time (sec): 5.000010E-1
Scans to average: 20
Electric dark correction enabled: true
Nonlinearity correction enabled: true
Boxcar width: 0
XAxis mode: Wavelengths
Number of Pixels in Spectrum: 3648
>>>>>Begin Spectral Data<<<<<
184.909	20944.85867
185.132	-5126.83687
185.355	-3126.63678
185.578	-18159.8151
185.801	1106.25662
186.024	10406.78602
186.247	-1941.73904
186.47	1190.84602
186.693	421.43608
186.916	281.96103
187.139	-3798.62177
187.362	3545.67034
187.585	4381.45939
187.808	3346.20558
188.031	55.44226
188.254	-55327.94471
188.476	-1690.69329
188.699	6436.84761
188.922	696.0438
189.145	-15193.13722
189.368	-686.78707
189.591	-1329.92302
189.813	3114.57362
190.036	-49189.21513
190.259	-890.64046
190.482	-4709.1827
190.705	7206.36866
190.927	-2411.69114
191.15	13594.98809
191.373	3343.6728
191.595	-8907.0831
191.818	-4131.09912
192.041	-5412.84103
192.263	-3340.8265
192.486	-796.8551
192.709	-3861.3275
192.931	7771.48119
193.154	-27863.46563
193.377	-2780.06
193.599	-2557.62286
193.822	-9555.26046
194.044	-2101.66176
194.267	1248.04333
194.489	196.77214
194.712	-43279.71458
194.934	-32100.41073
195.157	1191.68093
195.379	1451.49641
195.602	-6978.58653
195.824	-1281.65613
196.047	-8502.02484
196.269	2753.67242
196.492	-6830.38213
196.714	28633.19793
196.936	-8930.31331
197.159	-1159.554
197.381	1179.44758
197.604	508.02484
197.826	12366.48924
198.048	-11316.87834
198.271	-2824.79329
198.493	7524.35359
198.715	2318.64397
198.938	-540.91261
199.16	6965.38975
199.382	-103730.68698
199.604	2632.02557
199.827	-1143.14178
200.049	-2815.7773
200.271	13510.92277
200.493	1245.26604
200.715	-38830.20139
200.938	-6078.84502
201.16	-4357.73159
201.382	21034.00612
201.604	2311.61815
201.826	2316.49474
202.048	-1920.7116
202.27	-1959.26025
202.492	-36922.39143
202.715	3007.95274
202.937	-4635.12429
203.159	-6392.32656
203.381	1499.29964
203.603	6849.54974
203.825	6697.08085
204.047	2278.24333
204.269	-2700.08026
204.491	2311.65887
204.713	6013.19041
204.935	-475316.48711
205.156	1258.08262
205.378	-2996.17845
205.6	1553.31361
205.822	156551.54491
206.044	-1146.92065
206.266	1637.44936
206.488	4765.21167
206.71	-5189.32322
206.932	1132.6738
207.153	11730.45055
207.375	-7002.60213
207.597	-38677.33993
207.819	-2947.28829
208.041	2447.87034
208.262	456.94599
208.484	729.56064
208.706	-786.9618
208.927	-823.11735
209.149	574.01295
209.371	-2945.91539
209.593	-260.44422
209.814	-802.23165
210.036	561.29057
210.258	-646.7898
210.479	1653.75537
210.701	1605.16091
210.922	3246.0494
211.144	-3787.95514
211.366	2134.58327
211.587	7060.87419
211.809	-8340.4055
212.03	2366.16093
212.252	460.17215
212.473	2084.03302
212.695	-6316.35979
212.916	2894.13012
213.138	-690.3619
213.359	3852.04728
213.581	5110.48431
213.802	-768.82317
214.024	1171.93544
214.245	2078.23649
214.466	2288.97045
214.688	-3260.07943
214.909	-1150.86923
215.131	-1682.02493
215.352	-3299.12052
215.573	14732.01045
215.795	5181.78382
216.016	5422.98316
216.237	895.31846
216.459	3514.40517
216.68	1826.84976
216.901	5113.31535
217.122	-2999.98604
217.344	-11554.86612
217.565	3425.48142
217.786	9217.93785
218.007	16937.94025
218.228	-698.23252
218.45	5954.18937
218.671	790.01863
218.892	38755.21675
219.113	1562.44203
219.334	-543.83319
219.555	9492.17189
219.776	3229.3141
219.997	22319.08297
220.219	2931.21327
220.44	-11994.50342
220.661	412.3689
220.882	1512.96884
221.103	-1157.91641
221.324	2198.60727
221.545	2303.37887
221.766	-8959.38782
221.987	987.70454
222.208	1609.92499
222.429	4377.75894
222.65	104.20293
222.87	18631.53639
223.091	754.35004
223.312	608.26759
223.533	1365.31164
223.754	1526.83299
223.975	1362.16271
224.196	2033.25362
224.417	1343.52248
224.637	574.18067
224.858	136.18724
225.079	1126.04578
225.3	647.12827
225.521	3779.11954
225.741	510.40626
225.962	499.04568
226.183	135.43152
226.404	672.26924
226.624	418.57477
226.845	598.1769
227.066	404.23749
227.286	254.82352
227.507	129.78197
227.728	108.97927
227.948	239.56275
228.169	74.5543
228.389	86.71298
228.61	48.23731
228.831	62.11665
229.051	2.1974
229.272	39.0465
229.492	56.76645
229.713	13.1751
229.933	37.27648
230.154	32.5953
230.374	53.09563
230.595	37.18012
230.815	22.94332
231.036	37.83488
231.256	-10.86484
231.477	69.47934
231.697	37.94866
231.917	40.1075
232.138	55.54764
232.358	114.73879
232.579	101.61373
232.799	21.40342
233.019	98.15159
233.24	114.05721
233.46	36.17316
233.68	63.1008
233.901	41.67497
234.121	26.38067
234.341	13.94655
234.561	-2.74207
234.782	22.16695
235.002	68.49039
235.222	-4.4239
235.442	62.79231
235.662	34.72817
235.883	62.49475
236.103	50.2841
236.323	38.91626
236.543	27.7478
236.763	40.60002
236.983	43.33289
237.203	40.78373
237.423	59.17109
237.643	87.92248
237.864	75.23673
238.084	17.21229
238.304	25.80662
238.524	42.67157
238.744	39.66111
238.964	74.23848
239.184	59.91656
239.404	64.45808
239.624	34.00908
239.843	61.00795
240.063	35.70396
240.283	21.81231
240.503	25.56725
240.723	24.84406
240.943	13.79441
241.163	19.11577
241.383	14.23224
241.603	7.09888
241.822	9.78755
242.042	5.88872
242.262	8.52014
242.482	9.27369
242.702	10.51556
242.921	2.82551
243.141	6.96752
243.361	6.36009
243.581	9.19031
243.8	7.36918
244.02	5.28773
244.24	9.17666
244.459	9.40832
244.679	17.00833
244.899	10.9289
245.118	12.64783
245.338	12.08451
245.558	13.01959
245.777	7.96862
245.997	10.99984
246.216	9.92698
246.436	5.91031
246.655	4.92743
246.875	3.11745
247.094	6.15273
247.314	2.05807
247.533	3.63687
247.753	4.32511
247.972	3.37788
248.192	1.14618
248.411	1.69835
248.631	3.46734
248.85	4.75944
249.07	3.90468
249.289	5.97728
249.508	5.0292
249.728	7.37198
249.947	6.88653
250.166	8.98272
250.386	4.43265
250.605	6.82471
250.824	10.88559
251.044	7.49454
251.263	29.25952
251.482	14.57485
251.701	12.0333
251.921	0.38408
252.14	3.07425
252.359	3.73069
252.578	10.00888
252.798	3.52691
253.017	9.33456
253.236	3.79097
253.455	6.31423
253.674	10.7419
253.893	5.05444
254.112	7.5411
254.331	11.34773
254.551	8.59523
254.77	3.8158
254.989	13.38028
255.208	9.94307
255.427	14.68598
255.646	12.13228
255.865	21.47142
256.084	8.6184
256.303	10.4607
256.522	14.61907
256.741	2.77118
256.96	3.32073
257.179	7.20784
257.397	10.67874
257.616	5.92894
257.835	5.91926
258.054	14.87575
258.273	10.58745
258.492	11.17274
258.711	6.87744
258.93	2.93661
259.148	4.64986
259.367	4.53821
259.586	5.46603
259.805	2.32806
260.023	5.16835
260.242	3.97528
260.461	2.85405
260.68	1.18061
260.898	4.50603
261.117	1.34785
261.336	1.05775
261.554	3.58938
261.773	3.53161
261.992	0.75077
262.21	3.43428
262.429	3.32365
262.648	7.33681
262.866	7.98552
263.085	5.63657
263.303	4.87694
263.522	8.92255
263.74	9.03994
263.959	14.80067
264.178	7.28362
264.396	6.71057
264.615	5.08
264.833	11.1285
265.051	8.43944
265.27	10.86488
265.488	11.59577
265.707	6.08784
265.925	10.98941
266.144	4.73928
266.362	5.89918
266.58	5.32899
266.799	5.21527
267.017	5.98286
267.235	5.20529
267.454	3.20562
267.672	1.77636
267.89	4.04247
268.109	4.45879
268.327	4.35779
268.545	0.77338
268.763	3.97853
268.982	1.20507
269.2	4.22629
269.418	3.02798
269.636	2.04259
269.854	4.63235
270.073	3.1555
270.291	1.81252
270.509	1.9369
270.727	4.47011
270.945	7.23477
271.163	7.38593
271.381	1.48076
271.599	3.02878
271.817	5.38258
272.036	1.75021
272.254	3.16018
272.472	2.21165
272.69	2.55644
272.908	2.34793
273.126	4.48357
273.344	5.34059
273.562	1.7588
273.779	2.67963
273.997	3.82896
274.215	4.21647
274.433	3.08231
274.651	4.41861
274.869	4.85817
275.087	3.01677
275.305	4.06899
275.523	2.44607
275.74	2.97002
275.958	5.54356
276.176	8.3278
276.394	2.58611
276.612	3.23865
276.829	3.13916
277.047	2.71657
277.265	3.05053
277.483	3.57833
277.7	4.36941
277.918	3.57985
278.136	6.35601
278.353	2.96418
278.571	1.932
278.789	4.47197
279.006	0.88066
279.224	3.09087
279.442	5.33179
279.659	3.49826
279.877	2.44598
280.094	5.94692
280.312	0.93638
280.529	3.39587
280.747	0.93004
280.964	2.70691
281.182	5.9748
281.399	2.56368
281.617	3.7585
281.834	2.65715
282.052	1.83957
282.269	3.11859
282.487	2.44988
282.704	1.973
282.921	2.26914
283.139	3.38685
283.356	4.03105
283.574	3.80003
283.791	1.86338
284.008	5.58379
284.226	2.97448
284.443	3.27939
284.66	4.54628
284.877	3.49665
285.095	2.04221
285.312	1.58307
285.529	0.9157
285.746	0.89132
285.964	2.02185
286.181	1.32305
286.398	1.9276
286.615	2.71312
286.832	2.59647
287.05	0.53644
287.267	1.78883
287.484	1.75586
287.701	2.55643
287.918	2.66269
288.135	2.71705
288.352	1.22426
288.569	1.51939
288.786	2.38871
289.003	2.04177
289.22	3.07466
289.437	1.54516
289.654	2.80999
289.871	3.06722
290.088	2.91936
290.305	2.32623
290.522	1.77589
290.739	2.0826
290.956	3.2096
291.173	3.59342
291.39	3.39191
291.607	2.45897
291.824	1.74665
292.04	1.29164
292.257	3.04481
292.474	3.30549
292.691	1.99096
292.908	1.03608
293.125	1.60544
293.341	1.07285
293.558	5.03533
293.775	2.02089
293.992	2.08863
294.208	0.94655
294.425	1.4716
294.642	1.95477
294.858	2.44467
295.075	0.72788
295.292	2.03314
295.508	2.47099
295.725	4.26009
295.942	1.93449
296.158	1.58639
296.375	2.5019
296.591	1.94561
296.808	2.16688
297.024	2.53007
297.241	2.82964
297.458	3.0427
297.674	0.88407
297.891	2.51755
298.107	2.33739
298.323	1.83544
298.54	4.04195
298.756	2.23062
298.973	1.6469
299.189	4.20964
299.406	2.38721
299.622	3.90551
299.838	4.01193
300.055	3.85041
300.271	2.00256
300.487	2.40403
300.704	2.82875
300.92	2.18936
301.136	5.86613
301.353	4.10536
301.569	3.45413
301.785	3.77579
302.001	4.2978
302.218	3.99672
302.434	4.07205
302.65	2.66143
302.866	3.29631
303.083	5.92968
303.299	5.82409
303.515	3.9814
303.731	4.32345
303.947	2.73005
304.163	3.40352
304.379	4.15808
304.595	4.39973
304.812	3.25731
305.028	3.43244
305.244	3.81824
305.46	4.79643
305.676	4.94447
305.892	5.46379
306.108	4.65426
306.324	3.90653
306.54	5.98106
306.756	4.72669
306.972	4.74571
307.187	4.23342
307.403	5.5394
307.619	3.83122
307.835	5.35936
308.051	5.63682
308.267	3.49357
308.483	5.86125
308.699	4.86466
308.914	4.56693
309.13	4.30405
309.346	3.29908
309.562	3.65651
309.778	3.5312
309.993	5.08418
310.209	4.94097
310.425	3.63721
310.641	4.75597
310.856	3.98621
311.072	3.92271
311.288	4.69157
311.503	5.08265
311.719	3.29494
311.935	3.41867
312.15	5.39667
312.366	5.01598
312.581	5.3072
312.797	4.80633
313.013	5.6342
313.228	4.29974
313.444	4.62304
313.659	4.18238
313.875	5.31459
314.09	4.7141
314.306	6.00993
314.521	5.61511
314.737	5.5445
314.952	4.84511
315.168	4.88029
315.383	5.13278
315.599	4.49979
315.814	4.63319
316.029	5.4792
316.245	3.88218
316.46	3.29004
316.675	5.91627
316.891	6.42659
317.106	7.57245
317.321	5.04792
317.537	5.64532
317.752	5.90553
317.967	5.81969
318.183	4.03497
318.398	4.60947
318.613	5.81087
318.828	6.34149
319.043	5.48762
319.259	4.71324
319.474	5.24624
319.689	6.02035
319.904	3.46267
320.119	5.99173
320.334	5.24084
320.549	4.83938
320.765	6.03868
320.98	5.33099
321.195	5.49258
321.41	4.94579
321.625	5.64648
321.84	6.59165
322.055	6.48123
322.27	4.35239
322.485	3.98302
322.7	5.48992
322.915	5.93772
323.13	4.68233
323.345	6.80551
323.56	6.23741
323.775	5.89078
323.989	5.66846
324.204	5.4085
324.419	6.35707
324.634	4.11222
324.849	5.19517
325.064	8.4606
325.279	6.29092
325.493	5.64037
325.708	6.08659
325.923	4.70728
326.138	5.06155
326.352	6.72919
326.567	6.24085
326.782	4.91472
326.997	4.89929
327.211	6.00734
327.426	5.63323
327.641	5.18578
327.855	4.09863
328.07	5.88167
328.285	7.32506
328.499	4.91801
328.714	5.54037
328.928	5.79206
329.143	5.36115
329.358	6.49417
329.572	6.30177
329.787	6.69246
330.001	7.73406
330.216	4.33804
330.43	7.53368
330.645	6.76765
330.859	6.21716
331.074	4.62734
331.288	5.52161
331.503	6.82297
331.717	4.38966
331.931	5.63004
332.146	5.63749
332.36	7.14108
332.575	5.91425
332.789	5.67042
333.003	5.78965
333.218	6.06235
333.432	4.9683
333.646	6.37278
333.86	7.22065
334.075	7.06428
334.289	5.10484
334.503	4.47796
334.717	6.08682
334.932	5.70187
335.146	6.30491
335.36	5.03989
335.574	6.4129
335.788	6.04552
336.003	6.62059
336.217	6.3272
336.431	6.11118
336.645	5.3403
336.859	4.71927
337.073	5.53338
337.287	6.05498
337.501	4.49026
337.715	6.11784
337.929	6.33581
338.143	4.83301
338.357	5.64019
338.571	5.43057
338.785	6.41822
338.999	5.46632
339.213	5.40011
339.427	4.7971
339.641	6.92709
339.855	5.41759
340.069	5.09093
340.283	6.66599
340.497	7.33273
340.711	6.26398
340.924	5.90278
341.138	4.90609
341.352	4.75981
341.566	6.07927
341.78	4.59278
341.993	5.46394
342.207	5.21485
342.421	6.10341
342.635	5.70195
342.848	5.59576
343.062	3.96842
343.276	5.37346
343.49	7.58049
343.703	5.26147
343.917	6.8389
344.131	7.03188
344.344	5.32792
344.558	5.61238
344.771	4.78378
344.985	7.29205
345.199	7.39868
345.412	6.40677
345.626	6.28437
345.839	4.73572
346.053	5.02774
346.266	5.29612
346.48	6.54729
346.693	6.49352
346.907	6.17743
347.12	5.19451
347.334	6.08758
347.547	6.31698
347.76	5.88287
347.974	6.98465
348.187	6.08014
348.401	5.75633
348.614	5.25547
348.827	5.75185
349.041	6.29755
349.254	4.6729
349.467	5.60119
349.681	5.21212
349.894	5.26287
350.107	7.10588
350.32	7.6877
350.534	5.04459
350.747	5.77631
350.96	5.35565
351.173	5.51315
351.386	5.75063
351.6	5.55733
351.813	5.63341
352.026	5.83122
352.239	5.231
352.452	5.70887
352.665	7.08427
352.878	5.97026
353.092	7.72405
353.305	6.70833
353.518	6.33758
353.731	5.37492
353.944	7.19589
354.157	5.88549
354.37	5.9148
354.583	5.42833
354.796	5.20867
355.009	7.09785
355.222	6.58312
355.435	6.28209
355.647	7.12713
355.86	5.71718
356.073	6.45134
356.286	5.97844
356.499	7.10207
356.712	6.88013
356.925	6.92695
357.138	7.07033
357.35	5.93293
357.563	6.17899
357.776	6.61714
357.989	6.48893
358.201	7.04691
358.414	6.9191
358.627	7.69295
358.84	6.47318
359.052	5.59774
359.265	6.12722
359.478	7.42404
359.69	4.76855
359.903	7.22195
360.116	7.50978
360.328	5.62656
360.541	7.29663
360.753	6.20679
360.966	6.57623
361.179	6.72059
361.391	6.54067
361.604	6.4279
361.816	6.75162
362.029	6.71136
362.241	6.39159
362.454	6.77004
362.666	6.39312
362.879	7.39428
363.091	6.74131
363.304	6.55077
363.516	6.78293
363.728	6.26301
363.941	7.26681
364.153	7.08865
364.366	5.47582
364.578	6.18326
364.79	7.04934
365.003	6.98125
365.215	6.3866
365.427	7.36479
365.639	7.58549
365.852	6.98215
366.064	8.4957
366.276	6.82797
366.488	7.09198
366.701	6.82178
366.913	6.7836
367.125	7.0346
367.337	6.31451
367.549	6.5438
367.762	6.96121
367.974	6.92539
368.186	6.79189
368.398	7.5499
368.61	7.22514
368.822	7.47267
369.034	6.66297
369.246	7.67459
369.458	9.33245
369.67	6.404
369.882	8.32861
370.094	5.76524
370.306	8.19989
370.518	6.95178
370.73	6.81407
370.942	6.7811
371.154	7.24316
371.366	7.04841
371.578	7.57329
371.79	7.01363
372.002	8.02499
372.214	8.8473
372.425	7.2452
372.637	8.45849
372.849	7.60961
373.061	6.12354
373.273	7.61815
373.484	7.67617
373.696	8.00803
373.908	6.03805
374.12	8.21824
374.331	7.92177
374.543	6.87418
374.755	6.92092
374.967	7.51832
375.178	8.23331
375.39	7.25924
375.602	7.70045
375.813	6.55173
376.025	7.02094
376.236	7.77145
376.448	8.06889
376.66	7.60551
376.871	7.67941
377.083	8.63301
377.294	9.16968
377.506	7.64671
377.717	8.95852
377.929	8.15828
378.14	7.836
378.352	8.2279
378.563	8.47903
378.775	9.11496
378.986	7.3852
379.197	8.09886
379.409	7.55603
379.62	8.49574
379.832	8.40495
380.043	7.94923
380.254	8.3141
380.466	7.44263
380.677	10.26471
380.888	9.47233
381.1	10.10897
381.311	10.16639
381.522	8.49424
381.733	10.1718
381.945	8.44918
382.156	8.21092
382.367	8.09532
382.578	10.39946
382.789	10.48475
383.001	7.94421
383.212	9.68382
383.423	9.65673
383.634	9.3511
383.845	9.24987
384.056	8.55261
384.267	8.72156
384.478	8.85777
384.69	8.10017
384.901	9.17892
385.112	8.99886
385.323	10.14382
385.534	9.16512
385.745	9.20533
385.956	9.20791
386.167	8.4012
386.378	9.32395
386.588	8.61387
386.799	8.49667
387.01	8.20355
387.221	9.70455
387.432	9.14406
387.643	10.32795
387.854	9.02416
388.065	9.01059
388.275	9.10377
388.486	8.83172
388.697	9.19837
388.908	8.96671
389.119	10.03748
389.329	10.25213
389.54	9.38161
389.751	9.52701
389.962	10.29142
390.172	9.47625
390.383	9.47481
390.594	9.1344
390.804	9.14457
391.015	9.2484
391.226	9.82742
391.436	10.10893
391.647	9.97885
391.858	10.09217
392.068	8.88918
392.279	9.33718
392.489	10.1092
392.7	10.56154
392.91	9.55201
393.121	9.36771
393.331	10.27013
393.542	10.70579
393.752	10.57736
393.963	10.33921
394.173	10.36883
394.384	10.37099
394.594	10.28854
394.804	9.36669
395.015	10.4228
395.225	10.54557
395.436	9.59269
395.646	10.50909
395.856	9.96811
396.067	9.34927
396.277	10.73708
396.487	10.44304
396.697	10.59992
396.908	10.56378
397.118	10.64926
397.328	10.41804
397.538	10.87395
397.749	9.84132
397.959	10.87764
398.169	10.62226
398.379	9.52745
398.589	10.72304
398.8	10.75644
399.01	10.62347
399.22	10.34338
399.43	11.914
399.64	10.57066
399.85	10.92842
400.06	10.77543
400.27	10.05363
400.48	10.55833
400.69	11.50409
400.9	10.39632
401.11	9.99532
401.32	11.16102
401.53	10.40165
401.74	11.735
401.95	11.04193
402.16	10.42141
402.37	10.91314
402.58	10.59831
402.79	11.11164
403	11.45776
403.209	10.52428
403.419	11.63413
403.629	10.46623
403.839	11.67342
404.049	11.49944
404.258	10.77979
404.468	10.73625
404.678	11.55664
404.888	11.93608
405.097	10.90883
405.307	11.0613
405.517	11.67122
405.727	11.50265
405.936	11.03969
406.146	11.42807
406.356	12.18754
406.565	11.17893
406.775	11.07065
406.984	11.0317
407.194	12.40774
407.404	11.21962
407.613	11.74425
407.823	11.75709
408.032	12.0114
408.242	11.91573
408.451	11.08628
408.661	11.24313
408.87	12.56093
409.08	10.88535
409.289	11.60517
409.499	11.60606
409.708	11.497
409.918	10.22626
410.127	11.76421
410.336	12.39359
410.546	12.08347
410.755	11.39039
410.964	11.46342
411.174	11.08886
411.383	11.89232
411.592	11.82013
411.802	11.15041
412.011	12.05383
412.22	11.52987
412.429	12.70042
412.639	12.56465
412.848	12.14294
413.057	12.52857
413.266	12.45749
413.475	11.75391
413.685	12.01934
413.894	12.31269
414.103	12.38092
414.312	12.41293
414.521	11.72263
414.73	11.96628
414.939	13.18798
415.148	12.31543
415.357	12.16723
415.566	11.88319
415.776	11.79445
415.985	11.72967
416.194	12.61209
416.403	13.30442
416.611	11.47216
416.82	12.00112
417.029	12.34612
417.238	12.00757
417.447	11.90031
417.656	12.28809
417.865	11.99479
418.074	12.32178
418.283	12.52535
418.492	13.1199
418.7	12.92154
418.909	13.96148
419.118	13.19102
419.327	13.64027
419.536	13.53317
419.744	13.78056
419.953	15.04538
420.162	15.37161
420.371	15.00466
420.579	15.75018
420.788	16.59873
420.997	16.72924
421.205	17.30672
421.414	17.03245
421.623	17.21312
421.831	16.81648
422.04	17.2458
422.249	16.45346
422.457	16.68393
422.666	15.62392
422.874	16.504
423.083	16.52784
423.291	16.5683
423.5	16.51157
423.708	17.04428
423.917	17.51231
424.125	17.11809
424.334	17.08616
424.542	18.64666
424.751	18.26188
424.959	17.75882
425.167	17.89718
425.376	17.63495
425.584	16.24349
425.793	15.88386
426.001	14.89493
426.209	14.85111
426.418	13.65019
426.626	13.18746
426.834	12.96646
427.042	13.3674
427.251	13.0541
427.459	13.71853
427.667	13.34122
427.875	12.66163
428.084	13.02211
428.292	13.88146
428.5	13.63349
428.708	12.66704
428.916	12.69887
429.124	13.28238
429.333	12.97084
429.541	13.11242
429.749	13.2447
429.957	13.25311
430.165	14.85812
430.373	12.54423
430.581	13.43573
430.789	14.14007
430.997	13.0919
431.205	12.91072
431.413	13.58298
431.621	13.25602
431.829	13.74347
432.037	13.20755
432.245	13.4681
432.453	13.74097
432.661	13.47989
432.869	14.50829
433.076	13.06425
433.284	13.53371
433.492	13.98926
433.7	14.33983
433.908	13.52209
434.116	13.79024
434.323	13.92046
434.531	13.70765
434.739	14.12008
434.947	14.18142
435.154	14.20816
435.362	13.74774
435.57	13.62932
435.778	13.3471
435.985	13.87219
436.193	13.46559
436.401	14.29993
436.608	13.66298
436.816	13.52285
437.023	14.43466
437.231	14.68611
437.439	13.95358
437.646	14.06918
437.854	13.90144
438.061	14.2096
438.269	13.75389
438.476	14.1112
438.684	13.81858
438.891	13.70831
439.099	13.56351
439.306	13.35845
439.514	13.43888
439.721	14.57249
439.929	14.34749
440.136	15.33939
440.343	15.50937
440.551	15.51095
440.758	17.13952
440.965	15.71472
441.173	15.55561
441.38	15.43308
441.587	15.01743
441.795	14.78817
442.002	14.4063
442.209	14.25178
442.416	14.33458
442.624	14.40327
442.831	14.32099
443.038	13.78139
443.245	13.44564
443.452	13.90425
443.66	14.32597
443.867	13.78896
444.074	13.63625
444.281	13.63451
444.488	13.91877
444.695	13.99516
444.902	13.83204
445.109	15.19098
445.316	14.99374
445.523	15.72061
445.73	16.06139
445.937	17.13589
446.144	17.74638
446.351	18.34763
446.558	17.40171
446.765	19.39058
446.972	18.48352
447.179	18.11071
447.386	18.62696
447.593	16.81108
447.8	17.6903
448.007	16.13699
448.214	15.19211
448.42	14.64967
448.627	14.79506
448.834	14.19408
449.041	14.247
449.248	14.20293
449.454	14.65587
449.661	15.17255
449.868	13.94744
450.075	13.99721
450.281	13.24931
450.488	13.76884
450.695	13.64499
450.901	13.81718
451.108	13.86338
451.315	14.67692
451.521	13.9688
451.728	14.78139
451.935	13.79153
452.141	14.01674
452.348	14.06658
452.554	14.11964
452.761	13.86302
452.967	15.09906
453.174	14.3215
453.38	14.42435
453.587	13.67552
453.793	14.42378
454	14.72899
454.206	15.42253
454.413	14.77854
454.619	14.52299
454.825	13.91008
455.032	14.57679
455.238	14.73926
455.445	13.69126
455.651	14.36373
455.857	13.37713
456.064	14.04137
456.27	13.95858
456.476	14.00943
456.682	13.57359
456.889	14.44788
457.095	14.39574
457.301	15.53109
457.507	14.33719
457.714	14.21939
457.92	14.27312
458.126	13.88518
458.332	14.18982
458.538	13.97814
458.744	14.18843
458.951	14.17906
459.157	16.39379
459.363	15.913
459.569	16.58957
459.775	17.42665
459.981	17.37656
460.187	17.94377
460.393	18.07818
460.599	18.16351
460.805	17.17692
461.011	16.08128
461.217	15.75752
461.423	15.34004
461.629	14.69866
461.835	15.03786
462.041	14.58123
462.247	15.46904
462.453	14.47813
462.658	14.48794
462.864	14.83554
463.07	14.60119
463.276	14.63262
463.482	14.48618
463.688	15.27368
463.893	14.24018
464.099	14.48507
464.305	15.29967
464.511	14.19651
464.716	14.4486
464.922	15.01035
465.128	14.1379
465.333	15.41813
465.539	14.96215
465.745	14.58532
465.95	14.72347
466.156	16.11243
466.362	15.1601
466.567	14.72288
466.773	14.32285
466.978	15.517
467.184	14.18073
467.389	13.72082
467.595	14.88548
467.8	14.31468
468.006	15.28083
468.211	15.40189
468.417	14.09921
468.622	14.96428
468.828	15.05899
469.033	15.00588
469.239	16.22126
469.444	14.46499
469.649	15.1495
469.855	14.74997
470.06	14.76616
470.266	14.27768
470.471	15.02219
470.676	15.05639
470.881	13.91503
471.087	15.47176
471.292	16.15567
471.497	14.16463
471.703	14.76735
471.908	14.50005
472.113	14.80824
472.318	15.13851
472.523	14.3304
472.729	14.90989
472.934	15.05154
473.139	14.57936
473.344	14.95578
473.549	15.4933
473.754	14.55291
473.959	16.42462
474.164	14.54872
474.369	14.88724
474.575	15.19233
474.78	14.93896
474.985	14.44082
475.19	13.93965
475.395	14.38535
475.6	14.80741
475.804	15.59353
476.009	14.82865
476.214	14.76666
476.419	14.6971
476.624	14.11063
476.829	14.43287
477.034	15.29136
477.239	14.47926
477.444	15.2057
477.648	15.39206
477.853	15.23224
478.058	14.74239
478.263	14.55559
478.468	14.43667
478.672	14.52956
478.877	15.72738
479.082	15.75974
479.287	15.23478
479.491	14.92095
479.696	14.49529
479.901	15.31796
480.105	15.42429
480.31	14.67656
480.515	15.08399
480.719	16.02659
480.924	14.74828
481.128	14.41004
481.333	15.07887
481.538	15.14964
481.742	15.71342
481.947	16.93549
482.151	18.39014
482.356	19.68661
482.56	22.53628
482.765	25.25616
482.969	29.62858
483.174	33.54268
483.378	38.55502
483.582	40.90323
483.787	43.8688
483.991	45.57657
484.196	46.51158
484.4	46.26875
484.604	46.61034
484.809	43.51753
485.013	41.0215
485.217	37.40035
485.422	33.70107
485.626	30.55909
485.83	28.43005
486.034	27.01132
486.239	27.15499
486.443	27.5797
486.647	28.24419
486.851	29.56279
487.055	31.61474
487.26	32.10771
487.464	33.63405
487.668	33.43599
487.872	34.79869
488.076	34.951
488.28	33.92035
488.484	32.18192
488.688	31.31469
488.892	29.70157
489.096	27.57764
489.3	25.60694
489.504	23.8955
489.708	22.41221
489.912	21.57356
490.116	21.03397
490.32	20.59208
490.524	21.90088
490.728	23.0515
490.932	24.43948
491.136	26.0054
491.34	27.69916
491.544	28.34576
491.748	28.762
491.951	29.08528
492.155	28.68415
492.359	28.01161
492.563	26.09926
492.767	24.68791
492.97	22.48152
493.174	20.24645
493.378	18.45518
493.582	16.44696
493.785	15.59976
493.989	15.628
494.193	15.53142
494.396	15.31968
494.6	15.83325
494.804	15.46147
495.007	15.07861
495.211	15.09509
495.414	15.28415
495.618	15.49619
495.822	15.96652
496.025	15.29733
496.229	15.67741
496.432	15.10082
496.636	15.41626
496.839	15.31479
497.043	16.1639
497.246	15.72346
497.45	15.42436
497.653	15.60839
497.856	15.53104
498.06	15.14267
498.263	15.49061
498.467	15.43798
498.67	15.91762
498.873	15.7347
499.077	15.48755
499.28	15.46732
499.483	15.76125
499.686	15.83974
499.89	15.67781
500.093	15.98738
500.296	15.23946
500.499	16.3711
500.703	15.63507
500.906	15.79808
501.109	16.39173
501.312	15.62386
501.515	15.57305
501.719	15.77242
501.922	16.24526
502.125	15.76241
502.328	15.52297
502.531	15.0982
502.734	15.50537
502.937	14.78455
503.14	15.64921
503.343	15.2144
503.546	15.44985
503.749	15.18871
503.952	15.98902
504.155	15.19753
504.358	15.84449
504.561	15.67088
504.764	14.90464
504.967	15.72844
505.17	15.60538
505.373	16.35903
505.576	15.69512
505.778	16.09033
505.981	15.27537
506.184	16.21924
506.387	14.81534
506.59	16.67431
506.793	16.13213
506.995	15.93448
507.198	14.71361
507.401	15.98022
507.604	15.89332
507.806	15.2658
508.009	15.29383
508.212	16.09293
508.414	15.26722
508.617	15.29426
508.82	15.56084
509.022	16.40644
509.225	15.8065
509.427	15.03506
509.63	16.38507
509.833	15.8725
510.035	15.46535
510.238	15.06444
510.44	16.34506
510.643	14.94455
510.845	16.64768
511.048	15.8865
511.25	15.43869
511.453	15.71763
511.655	15.89988
511.858	15.66291
512.06	16.12782
512.262	15.78583
512.465	16.20822
512.667	15.59868
512.869	15.22935
513.072	16.07638
513.274	16.20464
513.476	16.07217
513.679	16.22379
513.881	15.37597
514.083	16.56878
514.286	15.49125
514.488	15.45121
514.69	15.25514
514.892	14.99709
515.094	16.19186
515.297	15.39983
515.499	15.87099
515.701	15.19406
515.903	16.58948
516.105	16.64429
516.307	16.11011
516.509	14.80256
516.711	15.22029
516.913	15.80095
517.116	15.67833
517.318	15.46438
517.52	16.25528
517.722	15.96781
517.924	15.18101
518.126	15.96935
518.328	15.71894
518.529	16.59127
518.731	17.35269
518.933	16.05406
519.135	16.27221
519.337	16.88052
519.539	16.27304
519.741	15.21464
519.943	15.7846
520.145	15.87335
520.346	16.27895
520.548	15.81749
520.75	16.07824
520.952	15.8228
521.153	15.98365
521.355	16.08318
521.557	15.37728
521.759	15.95613
521.96	15.78676
522.162	15.22932
522.364	16.41754
522.565	15.50829
522.767	16.18151
522.969	16.26822
523.17	16.13612
523.372	16.0762
523.573	15.51184
523.775	15.75292
523.977	15.37953
524.178	16.72286
524.38	15.41573
524.581	16.00099
524.783	15.62299
524.984	16.06802
525.186	15.92706
525.387	16.64594
525.589	16.94517
525.79	17.19849
525.991	17.48334
526.193	18.17457
526.394	17.76178
526.596	18.73471
526.797	19.06527
526.998	18.82562
527.2	19.77134
527.401	22.1854
527.602	24.09681
527.803	27.38622
528.005	29.6082
528.206	32.0657
528.407	34.03538
528.608	35.05098
528.81	35.77612
529.011	35.51694
529.212	36.61761
529.413	34.87581
529.614	33.06368
529.815	30.97943
530.017	28.64766
530.218	25.43581
530.419	22.88353
530.62	21.57189
530.821	20.21118
531.022	18.51656
531.223	18.95308
531.424	18.35795
531.625	18.42039
531.826	18.05212
532.027	18.72887
532.228	20.34272
532.429	21.01216
532.63	21.82551
532.831	23.14225
533.032	23.82697
533.233	24.91421
533.433	24.69204
533.634	25.07301
533.835	24.34684
534.036	23.62987
534.237	22.66759
534.438	21.29951
534.638	19.41216
534.839	18.37158
535.04	17.62153
535.241	16.56041
535.441	17.19172
535.642	16.87281
535.843	16.37866
536.043	16.80626
536.244	17.10533
536.445	17.58533
536.645	18.37885
536.846	18.21536
537.047	18.45549
537.247	17.42814
537.448	17.04601
537.648	16.61779
537.849	16.11719
538.049	16.13589
538.25	16.48941
538.451	16.36874
538.651	15.67602
538.851	16.41296
539.052	16.71646
539.252	16.37584
539.453	15.93353
539.653	16.15071
539.854	15.89689
540.054	16.03742
540.254	18.39085
540.455	20.18083
540.655	21.23501
540.855	23.56277
541.056	25.21271
541.256	25.7847
541.456	27.07855
541.657	27.1929
541.857	27.91595
542.057	26.60507
542.257	25.75777
542.458	25.5783
542.658	24.49911
542.858	22.1462
543.058	21.28148
543.258	20.31076
543.458	18.45595
543.659	17.71468
543.859	17.7784
544.059	17.22853
544.259	16.39979
544.459	16.92455
544.659	16.18678
544.859	16.60149
545.059	16.28664
545.259	16.61736
545.459	16.4209
545.659	16.80458
545.859	16.22811
546.059	16.53625
546.259	15.88067
546.459	15.69229
546.659	15.75482
546.859	16.64406
547.059	16.43079
547.258	16.52895
547.458	16.54382
547.658	15.88142
547.858	15.78183
548.058	16.38494
548.258	16.28223
548.457	15.88474
548.657	17.52845
548.857	16.14305
549.057	16.72894
549.256	16.43287
549.456	15.91905
549.656	15.10317
549.855	17.28152
550.055	15.9105
550.255	17.15598
550.454	16.3908
550.654	16.49932
550.853	16.9743
551.053	16.60546
551.253	16.16713
551.452	16.50374
551.652	15.43172
551.851	15.24517
552.051	15.98984
552.25	15.80967
552.45	15.75629
552.649	15.9859
552.849	15.65065
553.048	16.23967
553.248	16.60247
553.447	15.48512
553.646	16.5947
553.846	17.62033
554.045	17.13258
554.244	15.51627
554.444	17.00517
554.643	15.55426
554.842	17.13258
555.042	17.39696
555.241	15.59815
555.44	15.26311
555.64	16.41829
555.839	17.22761
556.038	16.30873
556.237	15.63581
556.436	16.30303
556.636	16.25925
556.835	15.54209
557.034	17.0476
557.233	16.03007
557.432	15.14938
557.631	16.67344
557.83	15.97965
558.029	15.76294
558.228	15.58002
558.427	15.53784
558.626	16.28889
558.825	15.36272
559.024	15.85665
559.223	17.30313
559.422	15.8871
559.621	16.34139
559.82	14.48587
560.019	16.01921
560.218	15.75562
560.417	14.56796
560.616	15.60763
560.815	18.18943
561.014	15.04433
561.212	17.12245
561.411	16.33501
561.61	15.28293
561.809	15.76586
562.008	17.2524
562.206	15.97031
562.405	16.48058
562.604	16.08126
562.803	16.0284
563.001	15.82478
563.2	15.27459
563.399	16.39279
563.597	15.26714
563.796	15.9345
563.995	15.21555
564.193	16.44268
564.392	15.85589
564.59	17.37039
564.789	14.86504
564.988	15.70195
565.186	16.13413
565.385	15.96077
565.583	15.87465
565.782	16.13525
565.98	15.93671
566.179	15.85526
566.377	15.62164
566.575	15.55163
566.774	17.09672
566.972	16.66206
567.171	17.45718
567.369	17.08404
567.567	16.41825
567.766	16.26873
567.964	14.86284
568.162	16.61236
568.361	16.89818
568.559	16.01835
568.757	16.25838
568.956	16.0405
569.154	16.05463
569.352	16.54489
569.55	16.0398
569.748	16.06309
569.947	15.50185
570.145	15.37214
570.343	15.40979
570.541	17.0005
570.739	15.39485
570.937	16.17066
571.135	16.30524
571.333	17.58893
571.532	17.48923
571.73	16.19508
571.928	16.87545
572.126	16.59462
572.324	16.04594
572.522	16.9615
572.72	18.04892
572.918	16.25149
573.116	16.58487
573.313	16.08207
573.511	16.23063
573.709	15.85498
573.907	16.82541
574.105	15.94574
574.303	15.24144
574.501	15.05288
574.699	16.60285
574.896	16.38997
575.094	16.60551
575.292	15.37436
575.49	16.82778
575.688	16.09432
575.885	17.17034
576.083	17.834
576.281	16.53434
576.478	15.62037
576.676	16.60465
576.874	15.27791
577.071	16.15071
577.269	17.76527
577.467	16.21791
577.664	16.10429
577.862	16.8875
578.059	15.66926
578.257	16.74193
578.455	15.80638
578.652	16.09298
578.85	14.66907
579.047	16.33834
579.245	15.90732
579.442	15.97076
579.64	15.80833
579.837	14.91761
580.034	18.27702
580.232	15.95069
580.429	15.18479
580.627	16.39818
580.824	16.90905
581.021	16.65777
581.219	15.81809
581.416	15.56579
581.613	17.32022
581.811	17.00579
582.008	15.32681
582.205	16.79236
582.402	16.35272
582.6	17.69742
582.797	16.34834
582.994	16.3529
583.191	16.8379
583.388	15.89797
583.586	16.74034
583.783	17.05786
583.98	15.3654
584.177	16.12909
584.374	14.02452
584.571	15.91684
584.768	15.85648
584.965	15.58905
585.162	16.75059
585.359	17.39338
585.556	16.14411
585.753	16.34894
585.95	15.06527
586.147	15.37453
586.344	16.49277
586.541	15.84637
586.738	15.21313
586.935	15.82328
587.132	15.56271
587.329	17.03574
587.526	16.00455
587.722	20.32497
587.919	15.07856
588.116	16.5272
588.313	17.31181
588.51	17.94326
588.706	15.9888
588.903	16.6285
589.1	16.98626
589.297	18.54082
589.493	16.19211
589.69	16.70355
589.887	15.88802
590.083	15.19478
590.28	15.64521
590.477	17.204
590.673	16.74645
590.87	17.19071
591.067	15.72012
591.263	16.41802
591.46	16.35465
591.656	15.92548
591.853	17.61003
592.049	15.72069
592.246	15.59668
592.442	16.98873
592.639	17.47851
592.835	15.37746
593.032	16.37473
593.228	14.83712
593.425	14.86512
593.621	14.90115
593.817	16.40787
594.014	15.35061
594.21	16.43023
594.406	16.99175
594.603	16.41633
594.799	15.52445
594.995	14.40279
595.192	17.212
595.388	15.90842
595.584	15.8807
595.78	15.03845
595.977	18.58792
596.173	17.44939
596.369	15.86487
596.565	15.41161
596.761	15.17994
596.957	17.22839
597.154	15.75574
597.35	15.83765
597.546	15.71577
597.742	16.76133
597.938	16.49302
598.134	15.83564
598.33	16.59762
598.526	17.40196
598.722	16.64215
598.918	17.80728
599.114	16.68654
599.31	15.10555
599.506	16.15029
599.702	15.36272
599.898	16.15015
600.094	16.78738
600.29	16.62636
600.485	16.94714
600.681	15.3705
600.877	17.66684
601.073	16.2133
601.269	18.00886
601.465	17.54309
601.66	15.28889
601.856	14.38462
602.052	17.8939
602.248	15.98573
602.443	14.46195
602.639	15.2103
602.835	15.61329
603.03	15.30973
603.226	16.91538
603.422	15.32275
603.617	16.06243
603.813	15.82883
604.009	15.80705
604.204	17.3275
604.4	15.26322
604.595	17.31303
604.791	15.58243
604.986	16.63284
605.182	15.79643
605.377	16.0814
605.573	16.11434
605.768	16.40273
605.964	16.96682
606.159	17.00659
606.355	17.18085
606.55	15.95427
606.746	17.30802
606.941	16.31448
607.136	17.98674
607.332	18.83471
607.527	15.09724
607.722	16.51034
607.918	15.91509
608.113	15.43056
608.308	16.97059
608.503	16.63622
608.699	16.73877
608.894	16.81698
609.089	15.66745
609.284	16.73269
609.479	15.90452
609.675	17.09153
609.87	16.32685
610.065	17.16647
610.26	17.24958
610.455	17.3942
610.65	16.64241
610.845	16.98198
611.04	17.52299
611.235	16.71042
611.43	16.65785
611.625	15.82874
611.82	18.11656
612.015	16.03884
612.21	18.44001
612.405	15.25152
612.6	18.17185
612.795	17.97034
612.99	17.21073
613.185	15.67679
613.38	15.77224
613.575	16.73795
613.77	19.54403
613.965	15.25827
614.159	15.77883
614.354	17.88295
614.549	17.71806
614.744	16.8841
614.938	15.24456
615.133	15.01367
615.328	17.81678
615.523	17.53938
615.717	19.60778
615.912	15.9876
616.107	16.36852
616.301	16.277
616.496	15.92865
616.691	18.26132
616.885	17.26721
617.08	19.78224
617.274	17.39834
617.469	18.5944
617.664	17.1597
617.858	16.01289
618.053	16.95694
618.247	16.14752
618.442	14.32838
618.636	18.21253
618.831	15.68118
619.025	15.69934
619.219	19.83177
619.414	13.2841
619.608	16.02124
619.803	15.79083
619.997	18.73339
620.191	17.64447
620.386	16.90396
620.58	16.23032
620.774	14.65502
620.969	14.83157
621.163	16.66411
621.357	15.36296
621.551	16.11361
621.746	16.50107
621.94	16.04983
622.134	19.92294
622.328	18.8728
622.522	14.60773
622.716	17.6716
622.911	17.65799
623.105	17.6353
623.299	17.06681
623.493	20.08919
623.687	15.63646
623.881	15.90277
624.075	17.20405
624.269	17.99459
624.463	14.32302
624.657	14.68662
624.851	16.99067
625.045	17.37781
625.239	17.4341
625.433	16.05788
625.627	18.4161
625.821	15.95845
626.015	15.68182
626.209	16.88339
626.403	14.89856
626.596	17.30945
626.79	17.71459
626.984	15.53008
627.178	17.50185
627.372	17.32754
627.565	17.6851
627.759	15.28447
627.953	15.82532
628.147	17.20455
628.34	17.71812
628.534	19.47492
628.728	16.34076
628.921	17.61767
629.115	17.64747
629.309	17.99088
629.502	18.02737
629.696	16.86545
629.89	16.68444
630.083	17.08617
630.277	17.26966
630.47	18.66608
630.664	16.33431
630.857	15.01751
631.051	17.51159
631.244	17.91924
631.438	17.83811
631.631	15.93249
631.825	18.55847
632.018	17.28232
632.212	19.0432
632.405	18.14596
632.598	15.8402
632.792	16.94372
632.985	13.68879
633.178	16.6325
633.372	16.67581
633.565	16.40309
633.758	18.11883
633.952	15.70789
634.145	15.80493
634.338	16.26053
634.531	16.29639
634.724	15.8717
634.918	16.78612
635.111	16.30536
635.304	16.59795
635.497	19.95178
635.69	17.41254
635.883	18.54397
636.077	15.78118
636.27	17.35836
636.463	17.4051
636.656	17.07709
636.849	16.95754
637.042	17.84443
637.235	19.4575
637.428	18.14426
637.621	17.25149
637.814	18.82768
638.007	18.96969
638.2	18.77542
638.393	19.62852
638.586	14.99343
638.778	16.31795
638.971	16.83773
639.164	18.83516
639.357	17.34923
639.55	19.36616
639.743	18.13956
639.935	17.78508
640.128	20.43355
640.321	18.31502
640.514	17.15542
640.707	20.39704
640.899	18.00882
641.092	14.95563
641.285	32.87514
641.477	14.28299
641.67	21.12151
641.863	19.07236
642.055	17.69739
642.248	17.29927
642.441	16.88285
642.633	18.10394
642.826	19.34881
643.018	19.4089
643.211	19.97007
643.403	20.61429
643.596	20.5834
643.788	20.73622
643.981	17.08501
644.173	18.72985
644.366	16.9493
644.558	14.68993
644.751	18.89561
644.943	15.73846
645.135	19.80823
645.328	20.56343
645.52	18.63902
645.712	19.46283
645.905	22.22869
646.097	15.6385
646.289	17.82286
646.482	21.09317
646.674	16.3334
646.866	19.40745
647.058	18.48925
647.251	16.0496
647.443	16.92178
647.635	17.19518
647.827	15.72808
648.019	15.95281
648.211	17.37442
648.404	17.88313
648.596	20.54279
648.788	17.80527
648.98	17.87905
649.172	18.58686
649.364	18.42727
649.556	15.27439
649.748	22.28916
649.94	15.96387
650.132	19.08654
650.324	16.46526
650.516	16.84838
650.708	19.56492
650.9	15.8634
651.092	15.53679
651.284	15.68434
651.476	16.14298
651.667	19.08998
651.859	20.46559
652.051	17.53402
652.243	18.60758
652.435	17.11014
652.627	18.8814
652.818	19.02883
653.01	15.18622
653.202	16.80356
653.394	17.14744
653.585	18.76741
653.777	25.47378
653.969	20.78699
654.16	19.95777
654.352	16.14544
654.544	17.82793
654.735	19.83031
654.927	18.05093
655.118	20.87878
655.31	19.41683
655.502	20.07733
655.693	18.02542
655.885	18.98901
656.076	20.59257
656.268	18.85146
656.459	20.8058
656.651	20.56864
656.842	17.63157
657.034	17.17035
657.225	19.69636
657.416	20.95742
657.608	20.82363
657.799	18.64127
657.99	20.96465
658.182	17.64934
658.373	17.09173
658.564	20.49845
658.756	19.1067
658.947	18.45897
659.138	17.49151
659.33	17.88999
659.521	17.37482
659.712	18.47302
659.903	18.38766
660.094	17.816
660.286	16.40521
660.477	21.64804
660.668	19.55933
660.859	18.36639
661.05	16.11196
661.241	19.4338
661.432	19.31245
661.623	18.11609
661.814	17.78429
662.006	16.21363
662.197	19.0515
662.388	20.63086
662.579	19.24793
662.77	23.90469
662.96	23.62621
663.151	20.47393
663.342	15.44789
663.533	20.11139
663.724	18.76225
663.915	22.45612
664.106	18.81819
664.297	22.11754
664.488	20.02192
664.678	17.78522
664.869	20.48791
665.06	20.60305
665.251	18.87261
665.442	20.0276
665.632	16.81392
665.823	22.70809
666.014	13.54087
666.204	20.24255
666.395	21.73846
666.586	23.58555
666.776	20.32513
666.967	23.25715
667.158	19.2456
667.348	22.07513
667.539	17.20351
667.729	21.07656
667.92	17.62863
668.111	20.92792
668.301	20.52502
668.492	18.65539
668.682	19.53933
668.873	19.06908
669.063	17.11462
669.253	20.02277
669.444	22.39845
669.634	19.36887
669.825	23.11947
670.015	21.97646
670.206	18.11894
670.396	23.35777
670.586	18.7644
670.777	20.30135
670.967	15.35015
671.157	18.95175
671.347	17.93707
671.538	22.73485
671.728	21.09211
671.918	24.02088
672.108	21.55222
672.299	19.0713
672.489	20.13925
672.679	18.20529
672.869	21.30794
673.059	24.88097
673.249	20.73872
673.44	17.4664
673.63	19.28992
673.82	21.54055
674.01	17.8998
674.2	20.62012
674.39	25.9621
674.58	21.59773
674.77	20.17174
674.96	19.26442
675.15	28.70373
675.34	22.61434
675.53	20.30748
675.72	19.225
675.91	16.73162
676.099	24.57826
676.289	25.4322
676.479	22.79102
676.669	18.96209
676.859	21.10158
677.049	18.49306
677.238	20.32073
677.428	24.00412
677.618	21.15339
677.808	24.72406
677.997	21.46631
678.187	18.55048
678.377	20.31979
678.567	19.13816
678.756	19.491
678.946	20.74615
679.136	17.63394
679.325	19.36733
679.515	18.39532
679.704	18.14156
679.894	22.41898
680.084	21.27707
680.273	23.25625
680.463	19.00882
680.652	19.02957
680.842	20.82483
681.031	22.83565
681.221	19.31526
681.41	22.14061
681.6	20.34164
681.789	22.26443
681.978	23.60233
682.168	21.21206
682.357	21.51724
682.547	21.93902
682.736	20.96429
682.925	23.58028
683.115	23.63664
683.304	22.76321
683.493	21.42685
683.682	22.18611
683.872	22.04516
684.061	23.6854
684.25	22.27108
684.439	27.06373
684.629	23.0678
684.818	29.6224
685.007	21.43034
685.196	20.28417
685.385	25.93318
685.574	22.2325
685.763	22.56218
685.952	22.31333
686.142	18.93346
686.331	25.26114
686.52	18.49509
686.709	26.60638
686.898	25.96866
687.087	23.4216
687.276	26.40138
687.465	25.06591
687.654	21.30924
687.842	25.70854
688.031	19.36696
688.22	25.77752
688.409	22.66866
688.598	22.75452
688.787	28.896
688.976	22.49261
689.165	27.52067
689.353	21.40746
689.542	23.67784
689.731	24.6706
689.92	28.25316
690.108	24.50291
690.297	21.74918
690.486	23.02773
690.675	24.55203
690.863	26.91129
691.052	26.60474
691.241	23.47805
691.429	23.34789
691.618	26.62733
691.806	19.64853
691.995	22.3747
692.184	22.87169
692.372	22.25247
692.561	23.108
692.749	23.76727
692.938	32.28919
693.126	24.42618
693.315	22.18671
693.503	25.06764
693.692	25.66901
693.88	25.34665
694.068	29.01514
694.257	23.61465
694.445	25.1685
694.634	18.31952
694.822	25.57885
695.01	27.34912
695.199	29.0313
695.387	27.68441
695.575	26.66772
695.763	23.17526
695.952	22.73876
696.14	19.10488
696.328	21.70659
696.516	23.62514
696.705	24.74373
696.893	24.15021
697.081	18.98025
697.269	25.65221
697.457	20.5492
697.645	20.12106
697.833	25.73045
698.021	21.23696
698.21	21.78735
698.398	22.927
698.586	20.54756
698.774	20.30434
698.962	23.29891
699.15	20.59403
699.338	19.51678
699.526	24.78914
699.714	21.55348
699.901	21.66859
700.089	25.36305
700.277	21.30175
700.465	22.8856
700.653	25.17047
700.841	23.80665
701.029	21.1581
701.217	27.50247
701.404	23.32506
701.592	28.24586
701.78	30.50868
701.968	23.562
702.155	23.51306
702.343	20.57318
702.531	27.3857
702.718	24.55971
702.906	22.55735
703.094	22.3666
703.281	27.91387
703.469	24.05094
703.657	27.43187
703.844	34.2816
704.032	30.97038
704.219	23.47215
704.407	26.44951
704.595	29.52792
704.782	26.42735
704.97	25.06141
705.157	24.29047
705.345	31.71355
705.532	38.04405
705.719	28.98801
705.907	32.04552
706.094	28.27753
706.282	35.05044
706.469	29.03409
706.656	29.91953
706.844	29.00388
707.031	33.40002
707.218	31.96042
707.406	35.45212
707.593	32.71831
707.78	33.37875
707.968	31.32888
708.155	29.23642
708.342	33.28167
708.529	33.22745
708.716	32.55607
708.904	37.13777
709.091	33.65069
709.278	28.41185
709.465	38.73331
709.652	36.39383
709.839	35.4122
710.026	31.52215
710.213	25.34676
710.4	30.93832
710.587	32.52695
710.774	33.35619
710.961	34.75521
711.148	30.44535
711.335	33.84087
711.522	30.50471
711.709	33.1033
711.896	37.96087
712.083	34.99563
712.27	28.07705
712.457	32.14458
712.644	26.33853
712.831	38.53616
713.017	31.63819
713.204	33.31943
713.391	28.40301
713.578	33.73824
713.765	35.66605
713.951	31.26898
714.138	41.06552
714.325	30.90169
714.512	29.02559
714.698	25.85493
714.885	34.40262
715.072	28.79812
715.258	28.0953
715.445	25.95014
715.631	32.56249
715.818	19.3214
716.005	25.68489
716.191	30.06239
716.378	26.13427
716.564	30.68585
716.751	23.81252
716.937	26.02393
717.124	30.79181
717.31	24.22699
717.497	35.97108
717.683	25.00591
717.869	36.60243
718.056	25.39585
718.242	29.35272
718.429	26.81584
718.615	23.34363
718.801	27.47262
718.988	32.37276
719.174	29.78043
719.36	26.44973
719.547	32.95735
719.733	28.80489
719.919	29.18119
720.105	30.16208
720.291	27.63204
720.478	28.95
720.664	27.35596
720.85	25.82251
721.036	39.93977
721.222	35.27039
721.408	28.03252
721.595	36.26998
721.781	34.5677
721.967	33.27752
722.153	35.53292
722.339	31.22471
722.525	30.57896
722.711	24.03416
722.897	23.15644
723.083	26.3325
723.269	33.02384
723.455	40.69397
723.641	46.89845
723.827	28.92009
724.012	31.28155
724.198	28.64262
724.384	34.71461
724.57	30.73811
724.756	23.21764
724.942	21.071
725.127	34.00494
725.313	34.95125
725.499	33.81662
725.685	38.19251
725.87	30.57397
726.056	25.93575
726.242	34.92265
726.428	22.24456
726.613	33.8114
726.799	27.93183
726.985	24.71064
727.17	22.14969
727.356	38.5808
727.541	25.08238
727.727	29.02956
727.913	32.81931
728.098	27.24903
728.284	32.48606
728.469	24.41395
728.655	25.89368
728.84	34.31936
729.026	32.89296
729.211	32.59265
729.397	31.89669
729.582	32.75507
729.767	29.31468
729.953	31.35453
730.138	35.99363
730.323	19.6574
730.509	24.75522
730.694	38.31211
730.879	32.50885
731.065	31.11674
731.25	41.05021
731.435	33.19968
731.621	23.45607
731.806	27.55615
731.991	30.65636
732.176	24.04744
732.361	37.8954
732.547	31.61133
732.732	23.87134
732.917	40.61261
733.102	25.0959
733.287	27.15951
733.472	30.1391
733.657	28.6807
733.842	23.70583
734.027	27.23302
734.212	28.92266
734.397	26.70904
734.582	29.79638
734.767	35.2525
734.952	36.73546
735.137	19.20156
735.322	37.55104
735.507	32.74705
735.692	30.90873
735.877	40.69589
736.062	39.87649
736.247	32.53902
736.431	29.70359
736.616	35.84545
736.801	32.33773
736.986	30.26933
737.171	25.27833
737.355	24.20777
737.54	37.18129
737.725	30.97859
737.909	44.6815
738.094	28.07123
738.279	34.58305
738.463	29.89408
738.648	34.39803
738.833	32.95297
739.017	42.41581
739.202	29.61391
739.386	29.91366
739.571	26.6254
739.756	35.07647
739.94	31.82394
740.125	33.56182
740.309	26.9357
740.494	35.47998
740.678	32.05594
740.863	33.53775
741.047	32.18934
741.231	39.37568
741.416	27.33787
741.6	39.07504
741.785	26.63414
741.969	35.92763
742.153	39.89395
742.338	20.93517
742.522	30.61079
742.706	36.1508
742.89	25.18266
743.075	31.68124
743.259	39.89786
743.443	36.82533
743.627	37.97443
743.812	44.48268
743.996	23.28181
744.18	30.29179
744.364	28.93442
744.548	45.94842
744.732	30.41972
744.916	37.28724
745.1	35.84275
745.285	30.16736
745.469	35.20933
745.653	41.07296
745.837	26.10345
746.021	46.03111
746.205	39.43251
746.389	33.24257
746.573	31.16953
746.757	41.13204
746.94	30.28465
747.124	39.81477
747.308	25.71203
747.492	39.47493
747.676	27.38665
747.86	47.16989
748.044	30.33655
748.227	23.55601
748.411	55.65952
748.595	33.24968
748.779	28.12392
748.963	34.85563
749.146	32.65314
749.33	28.19321
749.514	27.91085
749.697	39.06003
749.881	28.81249
750.065	27.33208
750.248	33.48853
750.432	47.96394
750.616	32.66889
750.799	26.26651
750.983	48.49155
751.166	47.97917
751.35	24.37375
751.533	40.01625
751.717	42.14325
751.9	42.2891
752.084	30.5039
752.267	28.21438
752.451	28.63443
752.634	33.90779
752.818	37.89058
753.001	37.08795
753.184	40.40401
753.368	34.86093
753.551	13.48696
753.734	28.11784
753.918	48.90948
754.101	29.10676
754.284	37.67855
754.467	30.64326
754.651	27.95102
754.834	28.77878
755.017	39.80421
755.2	41.14184
755.384	27.4096
755.567	38.74678
755.75	38.44031
755.933	31.53565
756.116	38.10896
756.299	29.49861
756.482	27.06603
756.665	37.72882
756.848	32.53772
757.032	35.56258
757.215	23.39732
757.398	27.83082
757.581	28.26739
757.764	52.07616
757.947	32.07806
758.129	38.91325
758.312	16.87141
758.495	32.54783
758.678	33.35491
758.861	31.06319
759.044	45.57052
759.227	26.92316
759.41	28.07549
759.592	38.27931
759.775	31.70103
759.958	39.21031
760.141	26.96035
760.324	50.78253
760.506	42.79977
760.689	38.46958
760.872	48.29313
761.054	36.89259
761.237	33.38763
761.42	34.07851
761.602	38.88086
761.785	35.3506
761.968	41.75212
762.15	46.12237
762.333	33.63143
762.515	36.60532
762.698	32.06612
762.88	40.28951
763.063	36.47429
763.245	41.00517
763.428	27.97473
763.61	30.67025
763.793	26.40798
763.975	36.11316
764.158	31.69099
764.34	29.80472
764.522	29.02782
764.705	33.4077
764.887	43.44287
765.069	24.71155
765.252	37.7981
765.434	37.99704
765.616	34.71369
765.799	29.05627
765.981	37.94323
766.163	29.91606
766.345	42.68211
766.528	29.01178
766.71	20.3076
766.892	34.60624
767.074	42.30812
767.256	32.57068
767.438	45.23245
767.62	35.7183
767.802	49.58132
767.985	38.8368
768.167	48.12134
768.349	30.12657
768.531	39.15974
768.713	36.68654
768.895	39.91409
769.077	36.48951
769.259	54.63614
769.441	71.92487
769.623	40.29052
769.804	45.1764
769.986	43.74414
770.168	52.8993
770.35	64.04902
770.532	50.00633
770.714	53.97174
770.896	52.92925
771.077	27.5957
771.259	55.75254
771.441	48.31368
771.623	58.11105
771.804	67.68362
771.986	27.87992
772.168	39.04385
772.35	53.69459
772.531	68.73661
772.713	45.74877
772.894	60.92796
773.076	45.63664
773.258	39.39779
773.439	60.90118
773.621	67.23408
773.802	36.18552
773.984	40.57639
774.166	49.17279
774.347	63.54867
774.529	57.80821
774.71	27.3483
774.891	45.2956
775.073	42.20484
775.254	59.84567
775.436	39.56429
775.617	72.84495
775.799	42.42252
775.98	60.90905
776.161	67.84266
776.343	69.26683
776.524	45.02996
776.705	43.68959
776.886	29.07576
777.068	51.34102
777.249	97.41602
777.43	70.46949
777.611	36.14324
777.793	43.81694
777.974	66.56845
778.155	39.93953
778.336	37.61379
778.517	77.6337
778.698	35.81648
778.879	27.55375
779.061	19.35853
779.242	53.14467
779.423	53.94437
779.604	40.11167
779.785	43.14446
779.966	49.9825
780.147	59.25214
780.328	58.72695
780.509	80.92686
780.69	58.41054
780.871	40.05535
781.051	31.52305
781.232	49.57597
781.413	47.06288
781.594	43.06426
781.775	43.3331
781.956	39.59865
782.137	24.44812
782.317	40.58966
782.498	48.04681
782.679	47.79784
782.86	50.31374
783.04	38.59736
783.221	50.22668
783.402	71.15119
783.583	46.71183
783.763	58.02201
783.944	40.77129
784.124	32.24202
784.305	69.30137
784.486	55.59622
784.666	47.07708
784.847	31.18153
785.027	91.183
785.208	38.37386
785.388	39.07054
785.569	41.01673
785.749	45.77281
785.93	41.30467
786.11	32.21795
786.291	54.61002
786.471	49.80165
786.652	58.35227
786.832	44.2444
787.012	47.20177
787.193	35.01563
787.373	47.20693
787.553	43.0289
787.734	49.87631
787.914	42.43057
788.094	58.51102
788.275	50.11696
788.455	43.35798
788.635	33.99202
788.815	49.54709
788.995	35.69347
789.176	30.00103
789.356	38.95384
789.536	44.43373
789.716	53.12808
789.896	38.48267
790.076	40.43731
790.256	51.5015
790.436	23.69019
790.616	35.65588
790.796	49.06264
790.976	42.16479
791.156	37.80738
791.336	53.4643
791.516	50.72657
791.696	44.38188
791.876	29.80268
792.056	49.4389
792.236	58.65058
792.416	56.29141
792.596	50.94269
792.776	51.9526
792.956	54.10796
793.135	70.52068
793.315	34.91281
793.495	60.80327
793.675	55.4691
793.854	56.96598
794.034	59.06176
794.214	34.82266
794.394	55.8781
794.573	61.73586
794.753	49.31688
794.933	36.99233
795.112	49.03268
795.292	60.45036
795.472	69.10156
795.651	32.63816
795.831	46.03651
796.01	43.05516
796.19	44.10018
796.369	47.41703
796.549	51.28076
796.728	44.73201
796.908	32.05788
797.087	34.98198
797.267	43.66235
797.446	34.46285
797.626	53.13538
797.805	52.50905
797.984	39.18506
798.164	57.24283
798.343	36.62703
798.522	48.84399
798.702	48.06748
798.881	33.26017
799.06	44.26084
799.239	27.64391
799.419	36.3394
799.598	70.5462
799.777	50.85568
799.956	60.9434
800.136	43.64199
800.315	36.33095
800.494	51.59822
800.673	59.89193
800.852	54.74062
801.031	60.42447
801.21	52.67319
801.389	42.44716
801.568	48.65995
801.747	72.1874
801.926	47.45927
802.105	64.49762
802.284	41.13075
802.463	69.50582
802.642	51.64109
802.821	49.91721
803	66.21265
803.179	58.61122
803.358	60.59528
803.537	39.56972
803.716	44.86913
803.895	40.40675
804.073	45.38005
804.252	38.60144
804.431	52.09232
804.61	43.30584
804.789	57.98146
804.967	41.04102
805.146	40.89158
805.325	76.90138
805.503	52.51896
805.682	33.28944
805.861	92.83816
806.039	64.87334
806.218	42.96293
806.397	52.14409
806.575	45.86167
806.754	51.85838
806.932	36.6376
807.111	59.6573
807.289	58.83314
807.468	48.7791
807.646	61.75103
807.825	54.04399
808.003	51.65007
808.182	62.38206
808.36	50.18844
808.539	38.24765
808.717	67.83039
808.895	40.22872
809.074	51.54418
809.252	49.42465
809.43	55.77982
809.609	64.08233
809.787	72.53353
809.965	46.25491
810.144	47.9844
810.322	47.29759
810.5	54.17784
810.678	42.66494
810.856	79.17559
811.035	63.19794
811.213	56.31766
811.391	68.3102
811.569	53.88145
811.747	100.27771
811.925	66.33482
812.103	41.21525
812.281	49.66589
812.459	75.05275
812.637	71.40835
812.816	62.20671
812.994	80.42717
813.171	67.41401
813.349	55.87975
813.527	63.61221
813.705	72.48905
813.883	87.90975
814.061	62.32428
814.239	74.77107
814.417	82.56675
814.595	60.88558
814.773	59.00673
814.95	53.25853
815.128	56.13425
815.306	44.78555
815.484	49.88112
815.662	39.07901
815.839	38.61811
816.017	44.18383
816.195	66.59946
816.372	45.87379
816.55	62.87519
816.728	72.37018
816.905	48.74252
817.083	75.12201
817.261	49.17879
817.438	96.75232
817.616	77.09
817.793	43.52462
817.971	62.51794
818.148	63.59124
818.326	68.88093
818.503	53.95809
818.681	75.96924
818.858	46.25258
819.036	50.39781
819.213	55.64851
819.391	42.27715
819.568	42.27831
819.745	38.47622
819.923	61.87866
820.1	48.19527
820.277	41.41913
820.455	47.52344
820.632	49.61594
820.809	52.76349
820.986	36.71507
821.164	32.38645
821.341	31.26372
821.518	41.58135
821.695	32.45807
821.872	30.97921
822.05	28.92266
822.227	25.88085
822.404	27.00795
822.581	29.40154
822.758	26.98736
822.935	27.04783
823.112	29.02526
823.289	26.42245
823.466	29.48623
823.643	28.65526
823.82	31.62201
823.997	30.04011
824.174	32.59892
824.351	39.65115
824.528	37.63513
824.705	35.62933
824.882	37.59565
825.059	44.57221
825.236	35.66423
825.412	36.31779
825.589	41.14485
825.766	53.65552
825.943	38.04274
826.12	42.40722
826.296	33.72715
826.473	39.44383
826.65	39.95532
826.827	44.65417
827.003	33.00534
827.18	36.467
827.357	39.64108
827.533	34.94833
827.71	25.10768
827.887	32.8799
828.063	35.67236
828.24	31.28759
828.416	38.01328
828.593	33.58903
828.769	43.644
828.946	43.96742
829.122	45.30597
829.299	43.99741
829.475	31.87203
829.652	44.22659
829.828	64.58277
830.005	45.34461
830.181	57.45539
830.357	46.21881
830.534	58.94975
830.71	48.96877
830.886	57.17774
831.063	57.34493
831.239	70.09175
831.415	40.68971
831.592	71.9188
831.768	48.56755
831.944	45.04091
832.12	75.97969
832.296	70.9569
832.473	61.16508
832.649	44.44156
832.825	60.90551
833.001	41.14447
833.177	53.67563
833.353	50.70897
833.529	33.96197
833.705	48.00641
833.881	35.45843
834.058	34.35439
834.234	36.93551
834.41	35.87942
834.586	30.78657
834.761	34.901
834.937	38.09911
835.113	37.6534
835.289	34.82485
835.465	39.37976
835.641	36.35143
835.817	40.00566
835.993	59.0344
836.169	36.03752
836.344	48.85176
836.52	53.88204
836.696	51.93862
836.872	42.77243
837.048	100.99566
837.223	47.01737
837.399	78.37787
837.575	63.39044
837.75	60.97484
837.926	81.32901
838.102	114.17439
838.277	94.91792
838.453	126.37339
838.628	125.81062
838.804	54.70662
838.98	109.81835
839.155	64.74718
839.331	82.79215
839.506	60.03625
839.682	61.58351
839.857	83.08209
840.033	91.78972
840.208	48.69845
840.384	32.63002
840.559	50.30316
840.734	70.54113
840.91	88.62603
841.085	58.81904
841.26	59.06421
841.436	52.98508
841.611	53.8463
841.786	78.36837
841.962	95.01074
842.137	66.01626
842.312	43.53269
842.487	58.51656
842.663	47.84611
842.838	59.58686
843.013	163.31968
843.188	85.48186
843.363	71.18081
843.538	141.5389
843.714	136.9523
843.889	142.36114
844.064	153.63882
844.239	127.38342
844.414	144.16886
844.589	99.47693
844.764	176.01244
844.939	169.15901
845.114	183.83461
845.289	181.67831
845.464	236.81872
845.639	166.28222
845.814	87.81827
845.989	105.73051
846.163	125.22594
846.338	131.20018
846.513	176.25499
846.688	116.99225
846.863	121.27755
847.038	110.7131
847.212	120.94744
847.387	122.78268
847.562	130.96363
847.737	161.92685
847.911	73.00411
848.086	80.90478
848.261	246.9611
848.435	121.4574
848.61	165.40923
848.785	88.11117
848.959	173.19471
849.134	229.20003
849.308	232.79201
849.483	131.5346
849.658	202.24898
849.832	111.7112
850.007	101.08832
850.181	258.77133
850.356	103.09378
850.53	250.88621
850.705	89.18749
850.879	52.71366
851.053	122.27937
851.228	115.3696
851.402	140.4672
851.577	185.26232
851.751	196.97909
851.925	133.78165
852.099	71.27167
852.274	95.72803
852.448	121.04956
852.622	162.6346
852.797	122.97932
852.971	118.03312
853.145	135.13169
853.319	364.44937
853.493	192.88584
853.668	108.93435
853.842	232.83979
854.016	189.47086
854.19	220.88806
854.364	135.77273
854.538	145.83179
854.712	194.72671
854.886	125.21772
855.06	127.88911
855.234	50.08721
855.408	208.30485
855.582	176.1084
855.756	168.29875
855.93	228.65598
856.104	160.17097
856.278	178.05411
856.452	132.95208
856.626	173.95481
856.8	276.57884
856.973	166.13569
857.147	153.12589
857.321	152.17997
857.495	190.6251
857.669	123.73289
857.842	113.68815
858.016	193.1422
858.19	105.30818
858.364	294.06721
858.537	117.13533
858.711	139.45441
858.885	123.83524
859.058	109.90859
859.232	67.61856
859.405	79.5601
859.579	172.27609
859.753	150.54856
859.926	106.51347
860.1	77.26427
860.273	132.19352
860.447	216.16985
860.62	121.65472
860.794	262.50667
860.967	157.5852
861.141	193.1146
861.314	271.59925
861.487	172.94179
861.661	213.53419
861.834	214.95938
862.008	191.58339
862.181	142.84931
862.354	141.40423
862.528	155.67796
862.701	115.38078
862.874	83.81533
863.047	129.08635
863.221	121.92128
863.394	65.50098
863.567	218.11888
863.74	58.01212
863.913	181.61352
864.087	155.93585
864.26	183.13288
864.433	133.41758
864.606	236.30113
864.779	141.87053
864.952	79.58954
865.125	117.69727
865.298	133.82534
865.471	138.50273
865.644	270.27662
865.817	225.10574
865.99	179.89885
866.163	208.41581
866.336	122.33102
866.509	146.93307
866.682	111.61449
866.855	198.04452
867.028	97.03642
867.2	175.60541
867.373	63.20156
867.546	151.36517
867.719	276.66551
867.892	169.41978
868.064	105.78702
868.237	169.32913
868.41	144.6258
868.583	83.45747
868.755	88.61339
868.928	139.85717
869.101	287.91418
869.273	203.86567
869.446	172.82544
869.619	203.4629
869.791	133.41607
869.964	204.33966
870.136	182.25623
870.309	143.01396
870.481	155.14969
870.654	84.18695
870.826	156.56716
870.999	120.42125
871.171	190.71545
871.344	118.69025
871.516	128.1223
871.689	106.24086
871.861	145.42363
872.033	107.56964
872.206	124.80984
872.378	196.76906
872.55	127.80037
872.723	92.47628
872.895	131.69118
873.067	199.79551
873.24	220.21029
873.412	117.10423
873.584	132.45404
873.756	125.92508
873.928	161.67573
874.101	162.25758
874.273	174.67465
874.445	70.21058
874.617	86.39708
874.789	150.32188
874.961	128.42961
875.133	173.30672
875.305	146.04292
875.477	94.9144
875.649	85.71705
875.821	102.17682
875.993	236.70194
876.165	101.97642
876.337	161.07157
876.509	130.41626
876.681	159.2229
876.853	153.91217
877.025	152.328
877.197	106.87815
877.369	95.81733
877.541	192.85706
877.712	64.68367
877.884	94.67628
878.056	176.27443
878.228	100.53905
878.4	166.59004
878.571	100.60699
878.743	73.74014
878.915	155.26985
879.086	94.58798
879.258	115.57094
879.43	103.94826
879.601	95.47658
879.773	99.77365
879.945	33.27051
880.116	48.48416
880.288	34.66444
880.459	36.6357
880.631	30.94784
880.802	35.97624
880.974	34.46079
881.145	27.83724
881.317	33.61315
881.488	28.11264
881.66	30.63097
881.831	28.6143
882.002	36.15426
882.174	29.51765
882.345	35.31514
882.517	25.04748
882.688	38.49888
882.859	35.20639
883.03	47.91632
883.202	46.66102
883.373	43.23949
883.544	41.91973
883.715	64.15453
883.887	54.92232
884.058	49.24123
884.229	64.02309
884.4	66.23802
884.571	72.84096
884.742	66.65417
884.914	68.37746
885.085	95.09722
885.256	114.55587
885.427	97.12236
885.598	110.96418
885.769	117.94803
885.94	114.72046
886.111	80.28011
886.282	130.96753
886.453	106.68964
886.624	81.33461
886.795	133.84948
886.966	105.68454
887.136	136.64594
887.307	106.94226
887.478	166.46626
887.649	153.53114
887.82	158.87457
887.991	125.11729
888.161	173.39688
888.332	168.77557
888.503	90.69545
888.674	208.12278
888.844	226.27439
889.015	182.11352
889.186	90.22025
889.356	216.05904
889.527	93.13428
889.698	358.75892
889.868	126.44136
890.039	163.48466
890.209	141.96577
890.38	185.41492
890.551	155.27267
890.721	221.86241
890.892	183.49061
891.062	132.47338
891.233	151.74717
891.403	130.67215
891.574	107.76046
891.744	129.07636
891.914	178.14815
892.085	148.4851
892.255	62.7416
892.425	215.161
892.596	189.5686
892.766	166.03962
892.936	216.36225
893.107	192.62489
893.277	112.65684
893.447	83.06997
893.618	67.69155
893.788	123.76032
893.958	74.07619
894.128	80.94832
894.298	81.22013
894.468	108.43235
894.639	54.64664
894.809	43.68532
894.979	60.5035
895.149	71.34671
895.319	58.22376
895.489	76.55335
895.659	91.78573
895.829	69.23923
895.999	70.54691
896.169	53.33319
896.339	66.4532
896.509	124.94605
896.679	143.71499
896.849	134.75377
897.019	186.40299
897.189	148.04796
897.358	128.1684
897.528	184.68069
897.698	74.22109
897.868	175.39225
898.038	286.78186
898.208	269.68838
898.377	104.51873
898.547	273.30537
898.717	424.07898
898.886	178.45346
899.056	266.97897
899.226	400.05437
899.395	239.13794
899.565	309.94475
899.735	205.07755
899.904	342.25829
900.074	286.8736
900.244	139.41045
900.413	516.09231
900.583	146.00877
900.752	192.35224
900.922	325.10081
901.091	40.97097
901.261	275.63335
901.43	259.71408
901.599	253.45502
901.769	566.48891
901.938	302.64014
902.108	287.67458
902.277	369.25548
902.446	116.49849
902.616	127.49799
902.785	185.06643
902.954	297.12548
903.124	195.89007
903.293	163.47158
903.462	94.39659
903.631	124.10474
903.801	97.31704
903.97	58.13754
904.139	91.71783
904.308	69.14823
904.477	60.15588
904.646	38.59014
904.816	57.03323
904.985	75.89712
905.154	109.75786
