Data from WindowProjectSample_Transmission__32__00032.txt Node

Date: Sat May 03 15:36:17 EDT 2025
User: jessi
Spectrometer: SR400872
Trigger mode: 0
Integration Time (sec): 5.000010E-1
Scans to average: 6
Electric dark correction enabled: true
Nonlinearity correction enabled: true
Boxcar width: 0
XAxis mode: Wavelengths
Number of Pixels in Spectrum: 3648
>>>>>Begin Spectral Data<<<<<
184.909	18506.17092
185.132	2649.29297
185.355	23624.0403
185.578	-8295.52528
185.801	264.44399
186.024	-1512.4042
186.247	814.19173
186.47	1707.37954
186.693	-269.717
186.916	-2548.90198
187.139	-2744.70513
187.362	1564.0038
187.585	2930.53074
187.808	-3373.65998
188.031	1632.95712
188.254	-1240.26908
188.476	-506.61782
188.699	2609.32335
188.922	-725.8028
189.145	-10006.54788
189.368	-410.93873
189.591	-1180.89727
189.813	-1821.49198
190.036	1246.13708
190.259	1765.10587
190.482	573.80685
190.705	10181.04111
190.927	-1088.27753
191.15	3433.02755
191.373	2431.39693
191.595	-2347.5433
191.818	2432.88059
192.041	-303.39646
192.263	2785.43701
192.486	1923.41255
192.709	-5080.12902
192.931	2744.75914
193.154	-6336.43821
193.377	179630.13043
193.599	1452.62884
193.822	1764.70053
194.044	-1967.38008
194.267	521.80807
194.489	443.47815
194.712	1364.97598
194.934	3469.9082
195.157	-15317.40859
195.379	688.92598
195.602	2446.16948
195.824	2185.56327
196.047	2770.17053
196.269	3095.27335
196.492	3613.00943
196.714	2852.96559
196.936	1174.92355
197.159	1328.38165
197.381	-2187.56013
197.604	-1468.05912
197.826	6534.12817
198.048	3247.76184
198.271	4053.67814
198.493	2189.33091
198.715	-6482.55212
198.938	-608.8158
199.16	1814.84171
199.382	1474.85545
199.604	-756.93441
199.827	9731.48849
200.049	904.86742
200.271	-2967.24537
200.493	-53291.02135
200.715	2383.24949
200.938	7252.6255
201.16	-7268.26988
201.382	-2824.93369
201.604	-2094.68707
201.826	6929.45074
202.048	854.24682
202.27	-18044.5427
202.492	4565.73248
202.715	-1039.19603
202.937	4279.46219
203.159	-2227.91983
203.381	849.92359
203.603	-3488.89969
203.825	-2740.16996
204.047	3460.83684
204.269	-2013.32947
204.491	2260.31149
204.713	1826.29612
204.935	14482.76991
205.156	1826.23438
205.378	-8357.78821
205.6	-4445.31433
205.822	9272.60073
206.044	-649.5671
206.266	4181.32165
206.488	1122.26068
206.71	29192.74937
206.932	2347.94609
207.153	-4890.52741
207.375	-1906.68958
207.597	8910.68563
207.819	4247.48883
208.041	2244.44118
208.262	-2577.25689
208.484	-1442.06846
208.706	-2672.11715
208.927	28264.42324
209.149	902.49675
209.371	-6654.99661
209.593	1565.57211
209.814	5101.8985
210.036	-2283.73565
210.258	-6003.79065
210.479	-1303.30092
210.701	979.49443
210.922	6756.29387
211.144	-1241.35032
211.366	-6071.2007
211.587	-639.62373
211.809	9827.47123
212.03	-1206.11161
212.252	-1300.28141
212.473	841.07916
212.695	-2481.13277
212.916	3122.5756
213.138	3412.29742
213.359	-1897.59642
213.581	5993.51047
213.802	-1876.76043
214.024	17434.39507
214.245	-3601.1317
214.466	-617.26748
214.688	1627.88025
214.909	854.62734
215.131	-95785.03565
215.352	1693.4782
215.573	2458.04292
215.795	2916.23904
216.016	4206.44637
216.237	-560.87554
216.459	6077.92308
216.68	105008.64679
216.901	-83007.07323
217.122	2176.24618
217.344	6112.38472
217.565	-58978.69031
217.786	1526.36508
218.007	1769.25757
218.228	-1099.33545
218.45	-1187.1069
218.671	-1060.62269
218.892	1053.22503
219.113	-19019.73389
219.334	-599.62045
219.555	-5039.27935
219.776	1627.23183
219.997	3424.38944
220.219	1088.98448
220.44	2363.89429
220.661	-2763.18661
220.882	3594.21224
221.103	-1267.33884
221.324	958.38272
221.545	2107.07581
221.766	-6266.56224
221.987	3497.28231
222.208	-1884.80308
222.429	3616.20649
222.65	-154.05124
222.87	-497.4984
223.091	7899.21647
223.312	2641.10564
223.533	6428.71419
223.754	1762.02993
223.975	1535.11072
224.196	-11230.55635
224.417	1092.79512
224.637	968.72884
224.858	-200.17461
225.079	6793.90281
225.3	624.1121
225.521	2038.02353
225.741	1541.19283
225.962	734.37619
226.183	234.09308
226.404	647.50005
226.624	596.66343
226.845	365.17526
227.066	407.16875
227.286	198.38334
227.507	94.89082
227.728	80.04753
227.948	134.39677
228.169	41.43259
228.389	47.30218
228.61	25.62229
228.831	35.57767
229.051	2.93603
229.272	22.06755
229.492	30.86821
229.713	8.51448
229.933	24.21571
230.154	19.27412
230.374	32.09904
230.595	24.93505
230.815	16.71048
231.036	22.98956
231.256	-6.18661
231.477	41.06631
231.697	23.31589
231.917	23.56292
232.138	36.6427
232.358	75.62539
232.579	65.15975
232.799	13.4027
233.019	62.45047
233.24	81.69915
233.46	24.31181
233.68	40.10919
233.901	29.91367
234.121	15.47415
234.341	6.81524
234.561	-2.80556
234.782	16.10604
235.002	45.19775
235.222	-1.0203
235.442	42.42817
235.662	20.3623
235.883	44.79485
236.103	37.79131
236.323	24.30945
236.543	19.70928
236.763	32.06168
236.983	28.95801
237.203	29.35157
237.423	42.72919
237.643	63.57682
237.864	51.24387
238.084	15.3432
238.304	20.65931
238.524	32.47277
238.744	28.30029
238.964	46.03796
239.184	43.72264
239.404	43.86923
239.624	23.44784
239.843	40.31786
240.063	24.81132
240.283	15.78176
240.503	17.31204
240.723	17.77353
240.943	9.74716
241.163	13.5812
241.383	10.59911
241.603	4.45339
241.822	5.76949
242.042	4.01333
242.262	5.84588
242.482	6.59262
242.702	8.36735
242.921	3.127
243.141	5.47508
243.361	5.03259
243.581	7.28625
243.8	6.30946
244.02	4.63904
244.24	7.4705
244.459	7.76787
244.679	14.35029
244.899	9.26501
245.118	10.31029
245.338	8.56998
245.558	10.81386
245.777	6.48245
245.997	7.60076
246.216	7.28728
246.436	4.34018
246.655	3.15246
246.875	2.61376
247.094	4.75127
247.314	1.72484
247.533	2.80745
247.753	3.68336
247.972	2.75077
248.192	0.85211
248.411	2.03525
248.631	3.13819
248.85	4.203
249.07	2.9106
249.289	4.91944
249.508	3.85176
249.728	6.13658
249.947	6.25521
250.166	7.39053
250.386	4.07772
250.605	5.55821
250.824	9.1404
251.044	6.34205
251.263	20.84186
251.482	10.64582
251.701	9.2513
251.921	0.22835
252.14	2.95529
252.359	3.37333
252.578	8.4119
252.798	2.81217
253.017	7.55086
253.236	4.32058
253.455	4.77016
253.674	9.92025
253.893	4.837
254.112	6.45799
254.331	9.713
254.551	7.7986
254.77	3.83812
254.989	11.77462
255.208	9.97116
255.427	13.70523
255.646	11.24663
255.865	17.49368
256.084	7.15959
256.303	8.4462
256.522	11.2474
256.741	2.76311
256.96	3.0254
257.179	7.6866
257.397	9.13159
257.616	4.45645
257.835	5.0748
258.054	12.34165
258.273	7.18607
258.492	8.6362
258.711	5.09939
258.93	2.10256
259.148	3.25317
259.367	3.00979
259.586	4.44263
259.805	2.024
260.023	4.2666
260.242	3.30391
260.461	2.20046
260.68	1.22663
260.898	3.88451
261.117	1.26059
261.336	0.82451
261.554	3.13256
261.773	3.37169
261.992	0.63954
262.21	3.10093
262.429	3.55885
262.648	6.2512
262.866	7.16767
263.085	4.66766
263.303	4.4955
263.522	7.72315
263.74	7.88942
263.959	12.49869
264.178	6.89856
264.396	5.78047
264.615	4.32986
264.833	9.69046
265.051	8.47539
265.27	8.36522
265.488	9.28764
265.707	5.88908
265.925	9.22011
266.144	4.27996
266.362	5.26089
266.58	4.9483
266.799	4.26201
267.017	5.41715
267.235	4.55488
267.454	3.1574
267.672	1.77926
267.89	3.88869
268.109	4.03476
268.327	4.07273
268.545	1.11271
268.763	3.69808
268.982	1.6914
269.2	4.45256
269.418	2.59048
269.636	1.79571
269.854	3.47175
270.073	3.12725
270.291	1.8288
270.509	1.65812
270.727	3.9879
270.945	6.14534
271.163	6.25005
271.381	1.51493
271.599	2.55162
271.817	4.49472
272.036	1.51873
272.254	2.66971
272.472	2.07705
272.69	2.22116
272.908	2.12076
273.126	3.6208
273.344	4.75715
273.562	1.85643
273.779	2.21062
273.997	3.51453
274.215	3.85806
274.433	2.6578
274.651	4.00639
274.869	3.9482
275.087	2.34365
275.305	3.84778
275.523	1.94986
275.74	2.67028
275.958	4.68788
276.176	7.05255
276.394	2.10032
276.612	2.90805
276.829	3.00543
277.047	2.18896
277.265	2.46632
277.483	3.28738
277.7	4.02103
277.918	3.19973
278.136	5.24465
278.353	2.5955
278.571	1.37829
278.789	4.16882
279.006	0.91744
279.224	2.55483
279.442	4.35566
279.659	3.11719
279.877	1.89403
280.094	5.01164
280.312	1.04121
280.529	2.99102
280.747	0.71701
280.964	2.19252
281.182	5.60963
281.399	2.45533
281.617	3.44139
281.834	2.42012
282.052	2.00208
282.269	2.82594
282.487	2.29322
282.704	1.80795
282.921	2.01042
283.139	2.84159
283.356	3.57666
283.574	3.25006
283.791	1.7584
284.008	4.72858
284.226	2.5466
284.443	2.95581
284.66	3.49008
284.877	3.05159
285.095	2.08398
285.312	1.48195
285.529	0.90064
285.746	0.79212
285.964	1.89069
286.181	1.28107
286.398	1.83925
286.615	2.43016
286.832	2.41962
287.05	0.83033
287.267	1.69979
287.484	2.56906
287.701	2.59069
287.918	2.41192
288.135	2.53421
288.352	1.05514
288.569	1.12192
288.786	2.25431
289.003	1.62208
289.22	2.54404
289.437	1.57106
289.654	2.62381
289.871	2.92777
290.088	2.5849
290.305	2.22375
290.522	1.58513
290.739	2.0877
290.956	2.8977
291.173	3.44236
291.39	3.16232
291.607	2.24967
291.824	1.70943
292.04	1.02686
292.257	2.56246
292.474	3.08516
292.691	1.85493
292.908	0.92833
293.125	1.73939
293.341	0.98437
293.558	4.68804
293.775	1.8909
293.992	1.89565
294.208	0.88036
294.425	0.95849
294.642	1.55006
294.858	2.44131
295.075	0.79048
295.292	1.85123
295.508	2.28778
295.725	3.36367
295.942	1.67987
296.158	1.17184
296.375	1.94747
296.591	1.45225
296.808	1.67353
297.024	1.79653
297.241	2.08326
297.458	2.29267
297.674	0.17288
297.891	1.77312
298.107	1.32128
298.323	1.04075
298.54	2.55491
298.756	1.10533
298.973	0.53913
299.189	2.61807
299.406	1.1187
299.622	2.85153
299.838	2.55262
300.055	2.57087
300.271	0.70254
300.487	0.91078
300.704	1.12447
300.92	0.74666
301.136	3.74763
301.353	2.65188
301.569	1.87864
301.785	2.04986
302.001	2.38283
302.218	2.22025
302.434	2.13931
302.65	0.52139
302.866	1.52782
303.083	3.63404
303.299	3.37262
303.515	1.80883
303.731	1.86462
303.947	0.86901
304.163	1.12715
304.379	2.00726
304.595	2.21519
304.812	1.40399
305.028	1.08576
305.244	1.52885
305.46	2.57767
305.676	2.66404
305.892	3.29586
306.108	2.11659
306.324	1.55697
306.54	3.28263
306.756	2.17181
306.972	2.37832
307.187	1.62963
307.403	3.21816
307.619	1.329
307.835	2.83538
308.051	3.1439
308.267	0.71914
308.483	2.65257
308.699	2.26702
308.914	2.05089
309.13	1.68143
309.346	0.43458
309.562	0.92142
309.778	0.61239
309.993	2.2651
310.209	1.69398
310.425	0.63104
310.641	1.56213
310.856	0.80616
311.072	0.80346
311.288	1.6764
311.503	1.90715
311.719	0.36995
311.935	0.25904
312.15	2.12537
312.366	1.73575
312.581	2.24462
312.797	1.80228
313.013	2.27298
313.228	1.3309
313.444	1.72561
313.659	1.25002
313.875	2.13579
314.09	1.76816
314.306	2.80522
314.521	2.60339
314.737	2.36552
314.952	2.0848
315.168	1.71839
315.383	2.4094
315.599	1.49841
315.814	1.49125
316.029	2.3737
316.245	0.70728
316.46	0.61041
316.675	2.90748
316.891	3.67426
317.106	4.45581
317.321	2.43492
317.537	2.34211
317.752	2.59233
317.967	2.79978
318.183	1.15141
318.398	1.70502
318.613	2.80376
318.828	3.22105
319.043	2.71488
319.259	1.45403
319.474	2.25626
319.689	2.96613
319.904	0.32491
320.119	2.62386
320.334	2.2463
320.549	1.71393
320.765	2.97602
320.98	2.28232
321.195	2.9198
321.41	1.76309
321.625	2.57942
321.84	3.52278
322.055	3.63311
322.27	1.15576
322.485	1.0683
322.7	2.07289
322.915	2.84156
323.13	1.08831
323.345	3.39393
323.56	2.02683
323.775	2.68062
323.989	2.35178
324.204	2.12608
324.419	2.75804
324.634	0.81098
324.849	1.78359
325.064	4.18324
325.279	2.97699
325.493	2.49085
325.708	3.01202
325.923	1.16807
326.138	1.19256
326.352	3.23048
326.567	2.84963
326.782	1.51959
326.997	1.25726
327.211	2.35747
327.426	2.25407
327.641	1.5987
327.855	0.54313
328.07	2.3447
328.285	3.55112
328.499	1.39499
328.714	2.53407
328.928	2.79241
329.143	2.12566
329.358	2.69763
329.572	2.98831
329.787	3
330.001	4.36255
330.216	0.81237
330.43	3.73437
330.645	3.46881
330.859	2.74827
331.074	1.48569
331.288	2.17591
331.503	3.26592
331.717	0.98191
331.931	2.03896
332.146	1.9689
332.36	3.58777
332.575	2.60389
332.789	2.12417
333.003	1.84161
333.218	2.35348
333.432	1.70225
333.646	2.51495
333.86	3.30742
334.075	3.47688
334.289	1.58217
334.503	1.14141
334.717	2.51302
334.932	2.32479
335.146	3.24866
335.36	1.61672
335.574	2.5341
335.788	2.38725
336.003	2.92868
336.217	2.6942
336.431	2.59572
336.645	1.40456
336.859	0.9315
337.073	1.76616
337.287	2.20138
337.501	1.24179
337.715	2.09263
337.929	2.62559
338.143	1.22459
338.357	1.99905
338.571	0.99346
338.785	2.28155
338.999	1.64938
339.213	1.75502
339.427	0.84781
339.641	2.915
339.855	1.85464
340.069	1.68457
340.283	2.99271
340.497	3.52687
340.711	2.36083
340.924	1.54279
341.138	0.99592
341.352	0.85105
341.566	2.18339
341.78	0.57638
341.993	1.47319
342.207	1.12513
342.421	2.18397
342.635	2.11287
342.848	1.60093
343.062	0.19584
343.276	1.46443
343.49	3.91903
343.703	1.5302
343.917	2.44103
344.131	2.77052
344.344	1.23788
344.558	1.43261
344.771	1.24065
344.985	3.1331
345.199	3.29842
345.412	2.13628
345.626	2.10309
345.839	0.45581
346.053	0.90883
346.266	1.04438
346.48	2.69701
346.693	2.08364
346.907	2.48632
347.12	1.16785
347.334	2.17853
347.547	2.25771
347.76	1.46875
347.974	2.99124
348.187	2.06411
348.401	1.60912
348.614	1.42896
348.827	1.69131
349.041	2.4653
349.254	0.65149
349.467	1.75132
349.681	0.7619
349.894	1.54348
350.107	3.14384
350.32	3.18876
350.534	0.65456
350.747	1.4797
350.96	1.13616
351.173	1.47404
351.386	1.57543
351.6	1.66255
351.813	1.25428
352.026	1.98578
352.239	0.80261
352.452	1.53923
352.665	2.31308
352.878	1.52402
353.092	3.78383
353.305	2.22708
353.518	2.04434
353.731	1.12717
353.944	2.98874
354.157	1.12206
354.37	1.04429
354.583	0.91135
354.796	0.64259
355.009	2.7012
355.222	1.82932
355.435	1.83402
355.647	2.56282
355.86	0.80852
356.073	1.66296
356.286	1.24773
356.499	2.38576
356.712	1.69044
356.925	2.05065
357.138	2.52912
357.35	1.0086
357.563	1.45208
357.776	1.7544
357.989	1.27849
358.201	1.95645
358.414	1.58505
358.627	2.53407
358.84	1.39377
359.052	0.81189
359.265	0.84733
359.478	2.50448
359.69	-0.42347
359.903	1.91829
360.116	2.22228
360.328	0.30009
360.541	2.24854
360.753	0.79335
360.966	1.13317
361.179	1.20862
361.391	1.12581
361.604	0.74007
361.816	1.04246
362.029	0.94959
362.241	0.86705
362.454	1.00917
362.666	0.75299
362.879	1.43816
363.091	1.15995
363.304	0.81592
363.516	1.52412
363.728	0.56269
363.941	1.85597
364.153	0.86046
364.366	-0.11939
364.578	0.81428
364.79	1.86124
365.003	1.37943
365.215	1.1493
365.427	1.83926
365.639	2.41992
365.852	1.7187
366.064	3.119
366.276	0.93331
366.488	1.9291
366.701	1.0613
366.913	1.41445
367.125	1.41018
367.337	1.01785
367.549	1.14409
367.762	1.48389
367.974	1.66744
368.186	0.81383
368.398	2.35469
368.61	1.97931
368.822	2.01618
369.034	1.48974
369.246	2.00557
369.458	3.19446
369.67	0.88522
369.882	2.86943
370.094	0.15887
370.306	2.89777
370.518	1.20905
370.73	0.81315
370.942	0.92494
371.154	1.16769
371.366	0.9903
371.578	1.59929
371.79	0.73622
372.002	2.40967
372.214	2.72542
372.425	1.59807
372.637	2.46516
372.849	1.36334
373.061	-0.23511
373.273	1.82443
373.484	1.87681
373.696	2.05271
373.908	-0.15194
374.12	2.14118
374.331	1.76634
374.543	0.81346
374.755	0.7534
374.967	1.6751
375.178	2.00195
375.39	1.37247
375.602	1.55539
375.813	0.55878
376.025	0.58406
376.236	1.42361
376.448	1.47539
376.66	0.96804
376.871	1.08009
377.083	2.14905
377.294	2.26127
377.506	1.08841
377.717	2.26291
377.929	1.47535
378.14	0.86121
378.352	1.66307
378.563	1.87339
378.775	2.42199
378.986	0.832
379.197	1.21858
379.409	1.09732
379.62	1.98842
379.832	1.70678
380.043	1.29536
380.254	1.42002
380.466	0.58909
380.677	3.48089
380.888	3.05089
381.1	3.26347
381.311	2.9368
381.522	1.41984
381.733	3.63887
381.945	1.11053
382.156	1.5157
382.367	1.21405
382.578	3.5805
382.789	3.43092
383.001	1.18427
383.212	2.37034
383.423	2.6593
383.634	2.22576
383.845	1.80503
384.056	0.9382
384.267	1.42435
384.478	1.3335
384.69	0.57702
384.901	1.851
385.112	1.73526
385.323	2.54425
385.534	1.85177
385.745	1.89534
385.956	1.94083
386.167	0.71323
386.378	1.75221
386.588	0.73442
386.799	0.86691
387.01	0.34915
387.221	2.24666
387.432	1.49275
387.643	2.92721
387.854	1.3503
388.065	1.40078
388.275	1.4838
388.486	1.30422
388.697	1.58658
388.908	1.42545
389.119	2.5604
389.329	2.78497
389.54	1.74421
389.751	2.23938
389.962	2.5451
390.172	1.8399
390.383	1.54436
390.594	1.29345
390.804	1.2838
391.015	1.35607
391.226	1.83092
391.436	2.28525
391.647	2.03034
391.858	2.25328
392.068	0.6879
392.279	1.13112
392.489	2.07256
392.7	2.68385
392.91	1.37839
393.121	1.34091
393.331	2.25964
393.542	2.77763
393.752	2.53223
393.963	2.35532
394.173	2.3425
394.384	2.6539
394.594	2.02134
394.804	1.30031
395.015	2.16439
395.225	2.62866
395.436	1.46446
395.646	2.62098
395.856	1.84009
396.067	1.32845
396.277	2.89092
396.487	2.59704
396.697	2.58707
396.908	2.939
397.118	2.83677
397.328	2.49806
397.538	3.02534
397.749	2.11941
397.959	3.16646
398.169	3.00418
398.379	1.6975
398.589	2.88819
398.8	2.82155
399.01	2.76922
399.22	2.50997
399.43	4.19731
399.64	2.70062
399.85	3.15669
400.06	2.80925
400.27	2.30208
400.48	2.80785
400.69	3.79066
400.9	2.6317
401.11	2.31688
401.32	3.501
401.53	2.6396
401.74	4.0103
401.95	3.71751
402.16	2.66671
402.37	3.36894
402.58	2.88242
402.79	3.57477
403	3.71019
403.209	2.7673
403.419	4.0342
403.629	2.9061
403.839	4.16515
404.049	4.15668
404.258	3.13217
404.468	3.21131
404.678	4.183
404.888	4.51046
405.097	3.57576
405.307	3.52052
405.517	4.29117
405.727	4.24846
405.936	3.63308
406.146	4.09571
406.356	4.7592
406.565	3.87969
406.775	3.57713
406.984	3.66292
407.194	5.34689
407.404	4.09104
407.613	4.406
407.823	4.6759
408.032	5.118
408.242	4.77387
408.451	3.84019
408.661	4.04086
408.87	5.3747
409.08	3.76887
409.289	4.55053
409.499	4.54647
409.708	4.44008
409.918	3.1485
410.127	4.65043
410.336	5.47926
410.546	5.19594
410.755	4.33873
410.964	4.32554
411.174	3.96225
411.383	4.95844
411.592	4.87792
411.802	4.11013
412.011	5.14632
412.22	4.59215
412.429	5.98284
412.639	5.95022
412.848	5.56276
413.057	6.23265
413.266	5.51923
413.475	4.95583
413.685	5.49443
413.894	5.62436
414.103	5.69813
414.312	5.6656
414.521	4.95193
414.73	5.49055
414.939	6.65924
415.148	5.51272
415.357	5.43654
415.566	5.46285
415.776	5.16443
415.985	5.3656
416.194	5.92717
416.403	6.81903
416.611	4.78457
416.82	5.30442
417.029	5.95755
417.238	5.36956
417.447	5.47268
417.656	5.86187
417.865	5.609
418.074	6.09345
418.283	6.48258
418.492	7.68612
418.7	7.39311
418.909	8.85478
419.118	7.53894
419.327	8.09867
419.536	7.94713
419.744	8.02457
419.953	9.43776
420.162	9.60434
420.371	8.69543
420.579	9.34799
420.788	10.04568
420.997	10.47732
421.205	10.34385
421.414	10.20798
421.623	10.60503
421.831	9.94603
422.04	10.62465
422.249	9.68166
422.457	9.94001
422.666	9.19514
422.874	10.36667
423.083	10.33907
423.291	10.32515
423.5	10.42187
423.708	10.77031
423.917	11.3547
424.125	10.51405
424.334	10.33179
424.542	12.37567
424.751	11.46266
424.959	11.16644
425.167	11.48172
425.376	11.21585
425.584	9.98194
425.793	10.06217
426.001	8.88403
426.209	9.21927
426.418	8.04226
426.626	7.45014
426.834	7.25928
427.042	7.36899
427.251	6.74469
427.459	7.71391
427.667	7.10242
427.875	6.23846
428.084	6.82333
428.292	7.9466
428.5	7.40165
428.708	6.37734
428.916	6.70852
429.124	7.01328
429.333	6.95355
429.541	6.8345
429.749	7.17093
429.957	7.19719
430.165	8.73831
430.373	6.14143
430.581	7.15112
430.789	8.08235
430.997	7.07706
431.205	6.82882
431.413	7.44771
431.621	7.17378
431.829	7.78802
432.037	7.13813
432.245	7.63704
432.453	7.86048
432.661	7.39188
432.869	8.82479
433.076	7.4469
433.284	8.0959
433.492	8.79505
433.7	8.95737
433.908	8.14448
434.116	8.36172
434.323	8.22169
434.531	7.9662
434.739	8.17662
434.947	8.19388
435.154	8.28286
435.362	7.76523
435.57	7.50373
435.778	7.26917
435.985	7.88454
436.193	7.35422
436.401	8.50334
436.608	7.66012
436.816	7.51218
437.023	8.58914
437.231	8.68986
437.439	7.86525
437.646	8.14892
437.854	7.97291
438.061	8.39629
438.269	7.98494
438.476	8.52994
438.684	8.284
438.891	8.32348
439.099	8.49179
439.306	8.15812
439.514	8.27863
439.721	9.94381
439.929	9.17104
440.136	10.6273
440.343	10.37214
440.551	10.27212
440.758	11.99126
440.965	10.57664
441.173	10.22943
441.38	9.96747
441.587	9.75324
441.795	9.53714
442.002	9.22023
442.209	8.99745
442.416	8.91788
442.624	8.74955
442.831	8.44454
443.038	8.0196
443.245	7.65069
443.452	7.81696
443.66	8.59543
443.867	7.89238
444.074	7.75043
444.281	8.11443
444.488	8.53491
444.695	9.07113
444.902	9.00393
445.109	10.39168
445.316	10.10455
445.523	10.46086
445.73	10.63433
445.937	11.57385
446.144	12.05864
446.351	12.57057
446.558	11.37322
446.765	13.23622
446.972	12.48984
447.179	11.95414
447.386	12.69246
447.593	10.93005
447.8	11.77492
448.007	10.50942
448.214	9.74963
448.42	9.18621
448.627	9.7531
448.834	8.80941
449.041	8.64988
449.248	8.33431
449.454	8.73204
449.661	9.24088
449.868	7.90426
450.075	7.86784
450.281	7.28125
450.488	7.73639
450.695	7.77231
450.901	7.66374
451.108	7.90667
451.315	8.87008
451.521	8.00166
451.728	8.86261
451.935	7.89162
452.141	8.124
452.348	8.30725
452.554	8.377
452.761	7.99499
452.967	9.245
453.174	8.48645
453.38	8.44218
453.587	7.56043
453.793	8.45304
454	8.73336
454.206	9.63581
454.413	8.87064
454.619	8.68981
454.825	7.88533
455.032	8.53656
455.238	8.76639
455.445	7.58646
455.651	8.42353
455.857	7.27205
456.064	8.19067
456.27	8.16447
456.476	7.97107
456.682	7.50265
456.889	8.49946
457.095	8.80875
457.301	9.67676
457.507	8.44886
457.714	8.39003
457.92	8.44161
458.126	7.94136
458.332	8.29945
458.538	8.38457
458.744	8.94944
458.951	9.27659
459.157	11.65309
459.363	10.97638
459.569	11.44209
459.775	12.07549
459.981	11.92606
460.187	12.23281
460.393	12.2745
460.599	12.38018
460.805	11.26449
461.011	10.37899
461.217	10.23995
461.423	9.50442
461.629	8.68468
461.835	8.99
462.041	8.60652
462.247	9.71335
462.453	8.4746
462.658	8.35497
462.864	9.20687
463.07	8.7336
463.276	8.55895
463.482	8.59711
463.688	9.6445
463.893	7.97325
464.099	8.51889
464.305	9.57514
464.511	8.20927
464.716	8.49758
464.922	9.03116
465.128	7.98269
465.333	9.48416
465.539	8.97705
465.745	8.78756
465.95	8.70498
466.156	10.53059
466.362	9.53297
466.567	8.79862
466.773	8.38792
466.978	9.81343
467.184	8.22681
467.389	7.67983
467.595	9.01972
467.8	8.26666
468.006	9.66578
468.211	9.53525
468.417	8.18577
468.622	9.06357
468.828	9.15143
469.033	8.96747
469.239	10.65408
469.444	8.41069
469.649	9.3306
469.855	8.72722
470.06	8.8493
470.266	8.04758
470.471	9.13419
470.676	9.06794
470.881	7.69842
471.087	9.53626
471.292	10.16151
471.497	8.00673
471.703	8.83036
471.908	8.62595
472.113	8.79835
472.318	9.59815
472.523	8.40372
472.729	9.1274
472.934	9.05355
473.139	8.82754
473.344	9.36514
473.549	9.85288
473.754	8.45092
473.959	10.54766
474.164	8.61323
474.369	8.76047
474.575	9.36178
474.78	8.96047
474.985	8.44997
475.19	7.8207
475.395	8.56684
475.6	8.76912
475.804	9.93531
476.009	8.94215
476.214	8.80502
476.419	8.70615
476.624	7.9045
476.829	8.60465
477.034	9.44258
477.239	8.63967
477.444	9.47903
477.648	9.38171
477.853	9.42135
478.058	8.84596
478.263	8.6916
478.468	8.4308
478.672	8.64311
478.877	10.07745
479.082	10.18783
479.287	9.51783
479.491	9.17716
479.696	8.48028
479.901	9.77901
480.105	9.44709
480.31	8.65731
480.515	9.26701
480.719	10.67514
480.924	8.90368
481.128	8.80248
481.333	9.9325
481.538	10.09229
481.742	10.71804
481.947	12.19814
482.151	13.0669
482.356	14.04801
482.56	16.6672
482.765	18.82967
482.969	22.30294
483.174	25.23329
483.378	29.33299
483.582	30.22387
483.787	32.39147
483.991	32.55116
484.196	32.7715
484.4	32.12132
484.604	31.8096
484.809	28.71734
485.013	27.20982
485.217	24.43507
485.422	21.65049
485.626	19.41919
485.83	18.57127
486.034	17.92335
486.239	18.5116
486.443	18.98392
486.647	19.70156
486.851	21.32918
487.055	22.9363
487.26	23.09207
487.464	24.00773
487.668	23.41776
487.872	23.78152
488.076	23.96121
488.28	22.91009
488.484	21.31122
488.688	20.49955
488.892	19.27052
489.096	17.96643
489.3	16.41459
489.504	15.41045
489.708	14.83877
489.912	14.44162
490.116	14.22216
490.32	13.74009
490.524	15.23773
490.728	16.43532
490.932	17.44932
491.136	18.68651
491.34	19.91303
491.544	20.51557
491.748	20.00345
491.951	19.99841
492.155	19.50054
492.359	18.65824
492.563	16.68795
492.767	15.88854
492.97	13.95383
493.174	12.43245
493.378	11.34902
493.582	9.92269
493.785	9.74239
493.989	9.50805
494.193	9.11765
494.396	8.5647
494.6	9.14934
494.804	8.67094
495.007	8.95092
495.211	9.04182
495.414	9.14579
495.618	9.53848
495.822	10.25645
496.025	9.54614
496.229	9.93923
496.432	9.58474
496.636	10.04128
496.839	10.09732
497.043	10.81337
497.246	10.29359
497.45	9.98215
497.653	10.24265
497.856	9.92137
498.06	9.37286
498.263	9.41935
498.467	9.37196
498.67	9.99718
498.873	9.66998
499.077	9.32359
499.28	9.50077
499.483	9.63912
499.686	10.03021
499.89	9.54862
500.093	10.04239
500.296	8.93304
500.499	10.38349
500.703	9.45311
500.906	9.52222
501.109	10.65705
501.312	9.4264
501.515	9.40795
501.719	9.69571
501.922	10.14445
502.125	9.47759
502.328	9.29812
502.531	9.01996
502.734	9.51021
502.937	8.5736
503.14	9.50459
503.343	8.96931
503.546	9.28247
503.749	9.00583
503.952	9.89333
504.155	9.01635
504.358	9.96029
504.561	9.67344
504.764	8.61963
504.967	9.52097
505.17	9.4546
505.373	10.58483
505.576	9.42556
505.778	9.85577
505.981	8.84746
506.184	10.18321
506.387	8.43124
506.59	10.73978
506.793	10.21537
506.995	9.70711
507.198	8.21722
507.401	9.66639
507.604	9.82736
507.806	8.96366
508.009	8.9552
508.212	9.94107
508.414	9.07169
508.617	9.23576
508.82	9.53076
509.022	10.44159
509.225	9.83186
509.427	8.78327
509.63	10.23003
509.833	9.67735
510.035	9.2592
510.238	8.76189
510.44	10.39593
510.643	8.52005
510.845	10.74958
511.048	9.6684
511.25	9.11364
511.453	9.44322
511.655	9.79031
511.858	9.43398
512.06	10.00959
512.262	9.76502
512.465	10.19335
512.667	9.47032
512.869	8.76838
513.072	9.88091
513.274	10.07597
513.476	9.99571
513.679	10.03535
513.881	9.0592
514.083	10.42066
514.286	9.01181
514.488	9.04526
514.69	8.95806
514.892	8.71949
515.094	10.05345
515.297	9.07589
515.499	9.60899
515.701	8.91154
515.903	10.59062
516.105	10.44719
516.307	9.91587
516.509	8.33005
516.711	8.8302
516.913	9.46485
517.116	9.56537
517.318	9.27139
517.52	10.10307
517.722	10.0786
517.924	9.42636
518.126	10.71527
518.328	10.25554
518.529	11.10028
518.731	11.91144
518.933	10.27782
519.135	10.5136
519.337	11.15575
519.539	10.39467
519.741	8.71561
519.943	9.62229
520.145	9.32797
520.346	10.21369
520.548	9.4971
520.75	9.79694
520.952	9.52105
521.153	9.8162
521.355	9.94274
521.557	8.82572
521.759	9.57831
521.96	9.4055
522.162	8.81869
522.364	10.29885
522.565	9.10797
522.767	10.09033
522.969	10.20876
523.17	9.76971
523.372	9.72279
523.573	9.39644
523.775	9.44307
523.977	8.76955
524.178	10.80311
524.38	9.11803
524.581	10.05171
524.783	9.43395
524.984	10.56439
525.186	10.68049
525.387	11.29536
525.589	11.30927
525.79	11.37958
525.991	11.18156
526.193	12.06049
526.394	11.32683
526.596	12.41605
526.797	12.85531
526.998	12.56849
527.2	13.2362
527.401	15.69141
527.602	17.09662
527.803	20.13985
528.005	21.49343
528.206	23.17215
528.407	24.41515
528.608	24.24707
528.81	24.64788
529.011	23.75673
529.212	24.29111
529.413	22.58016
529.614	21.02567
529.815	19.58545
530.017	17.83965
530.218	15.68843
530.419	13.8133
530.62	13.19858
530.821	12.58551
531.022	10.98887
531.223	12.06764
531.424	11.89558
531.625	12.22102
531.826	11.9217
532.027	12.59753
532.228	14.43162
532.429	14.64571
532.63	15.22744
532.831	16.33749
533.032	16.19138
533.233	17.07051
533.433	16.68178
533.634	16.74649
533.835	15.81922
534.036	15.09303
534.237	14.25893
534.438	13.29176
534.638	11.51906
534.839	11.28545
535.04	10.86732
535.241	10.26841
535.441	11.58585
535.642	10.99262
535.843	10.3562
536.043	10.99148
536.244	10.99628
536.445	11.61037
536.645	12.33401
536.846	12.18441
537.047	12.28854
537.247	10.79034
537.448	10.59908
537.648	10.555
537.849	9.95197
538.049	9.89257
538.25	10.20038
538.451	10.44364
538.651	9.30187
538.851	10.17558
539.052	10.71575
539.252	10.2917
539.453	9.63655
539.653	10.13448
539.854	9.9997
540.054	11.12529
540.254	13.13032
540.455	14.50607
540.655	14.71889
540.855	16.56855
541.056	18.07633
541.256	17.90802
541.456	18.85021
541.657	18.09574
541.857	18.74324
542.057	16.95294
542.257	16.13947
542.458	16.36998
542.658	15.37699
542.858	13.42352
543.058	13.49297
543.258	12.52932
543.458	10.67498
543.659	10.37693
543.859	11.13293
544.059	10.74003
544.259	10.01686
544.459	10.55825
544.659	9.79437
544.859	10.22073
545.059	9.56429
545.259	10.40369
545.459	9.98272
545.659	10.69892
545.859	9.88015
546.059	10.04699
546.259	9.49438
546.459	9.22524
546.659	9.30079
546.859	10.71363
547.059	10.28313
547.258	10.26453
547.458	10.41207
547.658	9.55008
547.858	9.29981
548.058	10.10077
548.258	9.80984
548.457	9.2172
548.657	11.70075
548.857	9.53774
549.057	10.1854
549.256	10.22484
549.456	9.43767
549.656	8.18331
549.855	11.08499
550.055	9.27311
550.255	11.12084
550.454	10.04203
550.654	10.196
550.853	10.91789
551.053	10.32009
551.253	10.00807
551.452	10.04776
551.652	9.05466
551.851	8.77708
552.051	9.76368
552.25	9.41658
552.45	9.31868
552.649	9.54323
552.849	9.31691
553.048	9.59392
553.248	10.26744
553.447	9.01682
553.646	10.29585
553.846	11.30186
554.045	10.46531
554.244	8.67245
554.444	11.06495
554.643	9.29509
554.842	10.82679
555.042	11.46128
555.241	9.04552
555.44	8.75722
555.64	10.49172
555.839	11.0155
556.038	9.88369
556.237	8.88361
556.436	10.1105
556.636	10.17478
556.835	9.01312
557.034	11.09874
557.233	9.70716
557.432	8.6742
557.631	10.86561
557.83	9.66013
558.029	9.11491
558.228	8.9333
558.427	8.61406
558.626	9.9703
558.825	8.56623
559.024	9.6027
559.223	11.21408
559.422	9.40256
559.621	9.80686
559.82	7.4554
560.019	9.7465
560.218	9.41975
560.417	7.23843
560.616	8.98904
560.815	12.65175
561.014	8.58468
561.212	11.00326
561.411	9.69406
561.61	8.40305
561.809	9.42659
562.008	10.70536
562.206	9.60732
562.405	10.20236
562.604	9.33606
562.803	10.05298
563.001	9.35206
563.2	8.56686
563.399	10.14482
563.597	8.68658
563.796	9.69178
563.995	8.81118
564.193	10.27468
564.392	9.65155
564.59	11.51881
564.789	8.16734
564.988	9.11862
565.186	9.76775
565.385	9.50743
565.583	9.52831
565.782	9.84373
565.98	9.98071
566.179	9.8492
566.377	9.11212
566.575	9.36822
566.774	11.20747
566.972	10.49841
567.171	11.43779
567.369	10.91494
567.567	10.0532
567.766	9.97421
567.964	8.35565
568.162	9.97292
568.361	10.5804
568.559	9.66531
568.757	10.00427
568.956	9.99959
569.154	9.79017
569.352	10.38844
569.55	9.81105
569.748	9.69494
569.947	9.18194
570.145	9.17368
570.343	9.18616
570.541	10.89157
570.739	8.79201
570.937	9.75513
571.135	10.28426
571.333	11.58482
571.532	11.3275
571.73	10.31376
571.928	11.19194
572.126	10.52455
572.324	9.62469
572.522	11.15951
572.72	12.34031
572.918	10.16153
573.116	10.54509
573.313	9.90865
573.511	10.098
573.709	9.25468
573.907	10.7316
574.105	9.69634
574.303	8.65999
574.501	8.54495
574.699	10.52413
574.896	10.50158
575.094	10.44442
575.292	8.95221
575.49	10.79026
575.688	9.72726
575.885	11.03103
576.083	11.85635
576.281	10.49537
576.478	8.98192
576.676	10.12855
576.874	8.27156
577.071	9.55556
577.269	12.11372
577.467	9.9079
577.664	9.63408
577.862	10.94149
578.059	8.89203
578.257	10.69719
578.455	9.34533
578.652	9.95821
578.85	7.9128
579.047	9.97267
579.245	9.62785
579.442	9.55507
579.64	9.76664
579.837	7.94936
580.034	12.5391
580.232	9.3154
580.429	8.52216
580.627	10.46134
580.824	11.09105
581.021	10.32733
581.219	9.17066
581.416	8.71659
581.613	10.97301
581.811	11.26665
582.008	8.98812
582.205	10.57628
582.402	10.00703
582.6	11.43404
582.797	9.58903
582.994	9.96275
583.191	10.39249
583.388	9.66736
583.586	10.37418
583.783	10.59966
583.98	9.23805
584.177	10.06123
584.374	6.54071
584.571	9.60453
584.768	9.62681
584.965	8.89885
585.162	10.03524
585.359	11.31227
585.556	9.70098
585.753	10.00539
585.95	8.02102
586.147	9.05982
586.344	10.45518
586.541	9.47245
586.738	8.28808
586.935	9.47032
587.132	8.70254
587.329	10.79999
587.526	9.9863
587.722	15.0874
587.919	8.50404
588.116	10.19632
588.313	11.10824
588.51	12.41447
588.706	9.25768
588.903	10.41736
589.1	10.77433
589.297	12.42312
589.493	9.99704
589.69	10.56233
589.887	9.35328
590.083	8.91339
590.28	9.14357
590.477	10.61976
590.673	11.04772
590.87	11.71772
591.067	9.52782
591.263	10.48308
591.46	10.25581
591.656	9.40553
591.853	11.57299
592.049	8.80328
592.246	9.19518
592.442	11.27764
592.639	11.18472
592.835	8.87688
593.032	10.48829
593.228	8.22447
593.425	8.15215
593.621	7.97158
593.817	10.20721
594.014	8.94068
594.21	10.02591
594.406	11.11188
594.603	10.50701
594.799	9.64909
594.995	7.65867
595.192	11.01733
595.388	9.86851
595.584	9.67557
595.78	8.72531
595.977	12.63668
596.173	11.97154
596.369	10.01736
596.565	9.19105
596.761	8.59196
596.957	11.67524
597.154	9.51025
597.35	9.79382
597.546	9.20508
597.742	11.2472
597.938	10.30946
598.134	9.26261
598.33	10.6157
598.526	11.48354
598.722	10.19961
598.918	12.11101
599.114	10.31054
599.31	8.73455
599.506	9.97596
599.702	8.89921
599.898	9.96637
600.094	11.00636
600.29	10.53823
600.485	10.75788
600.681	9.20175
600.877	12.19684
601.073	9.89512
601.269	12.38148
601.465	11.44231
601.66	8.83669
601.856	7.52419
602.052	12.40034
602.248	9.52369
602.443	8.23048
602.639	8.71545
602.835	9.05382
603.03	9.08595
603.226	11.50674
603.422	9.03651
603.617	9.78839
603.813	9.85352
604.009	9.74695
604.204	11.52732
604.4	8.80086
604.595	11.34205
604.791	9.15431
604.986	10.56305
605.182	9.81587
605.377	10.01442
605.573	9.75922
605.768	10.24931
605.964	10.96364
606.159	10.77012
606.355	11.41225
606.55	9.46767
606.746	11.65356
606.941	9.85714
607.136	12.6375
607.332	13.60484
607.527	8.66977
607.722	10.30987
607.918	9.66362
608.113	9.26502
608.308	11.4166
608.503	10.86656
608.699	10.76685
608.894	11.09954
609.089	9.34473
609.284	10.56154
609.479	9.93783
609.675	11.57497
609.87	10.21656
610.065	11.75815
610.26	11.71322
610.455	11.31456
610.65	10.15735
610.845	10.22362
611.04	11.49269
611.235	9.9783
611.43	9.65373
611.625	8.70948
611.82	12.01891
612.015	9.23281
612.21	12.30723
612.405	8.28255
612.6	12.53527
612.795	11.97589
612.99	11.10991
613.185	8.9283
613.38	9.06503
613.575	10.20605
613.77	14.5041
613.965	8.51114
614.159	8.94521
614.354	11.83341
614.549	11.71903
614.744	11.34702
614.938	8.7258
615.133	8.11139
615.328	12.60077
615.523	11.27488
615.717	14.25064
615.912	8.92768
616.107	10.33947
616.301	9.7426
616.496	9.28841
616.691	12.34471
616.885	11.32746
617.08	14.52902
617.274	11.46622
617.469	13.45505
617.664	10.90841
617.858	10.08115
618.053	11.07993
618.247	9.98642
618.442	6.85595
618.636	12.7531
618.831	9.6737
619.025	9.77303
619.219	14.96365
619.414	6.06765
619.608	10.3017
619.803	9.83054
619.997	13.96575
620.191	12.42646
620.386	10.93945
620.58	10.1664
620.774	8.01704
620.969	8.17695
621.163	10.4708
621.357	8.94206
621.551	10.09964
621.746	10.53897
621.94	9.56294
622.134	15.82638
622.328	13.85829
622.522	8.27009
622.716	11.95702
622.911	11.63909
623.105	11.86759
623.299	11.25821
623.493	15.53068
623.687	8.85334
623.881	10.18861
624.075	11.36781
624.269	12.38014
624.463	7.56402
624.657	8.04584
624.851	11.13589
625.045	12.00694
625.239	12.49319
625.433	10.41062
625.627	12.93749
625.821	9.33669
626.015	9.41312
626.209	11.01702
626.403	8.91436
626.596	11.21446
626.79	11.96412
626.984	8.84146
627.178	11.62891
627.372	11.68528
627.565	11.88349
627.759	8.41026
627.953	8.92446
628.147	11.49451
628.34	11.38235
628.534	14.08992
628.728	10.82617
628.921	12.03223
629.115	11.34662
629.309	12.40117
629.502	12.11012
629.696	10.49085
629.89	10.53573
630.083	11.19217
630.277	11.59416
630.47	13.60678
630.664	10.13123
630.857	7.87928
631.051	12.07739
631.244	12.97428
631.438	11.96071
631.631	9.22481
631.825	13.43596
632.018	12.29394
632.212	13.86571
632.405	12.83422
632.598	9.53021
632.792	11.02239
632.985	7.3082
633.178	10.28401
633.372	10.61261
633.565	10.97585
633.758	13.30385
633.952	9.34002
634.145	9.40756
634.338	11.15121
634.531	9.88277
634.724	9.93914
634.918	10.91447
635.111	10.60021
635.304	9.88004
635.497	14.76169
635.69	11.32885
635.883	13.71849
636.077	8.75788
636.27	11.81807
636.463	11.18818
636.656	11.17302
636.849	10.12546
637.042	12.48601
637.235	13.90117
637.428	12.63442
637.621	12.74215
637.814	13.37725
638.007	14.22231
638.2	13.21861
638.393	14.42914
638.586	8.96836
638.778	10.11287
638.971	10.57274
639.164	13.70122
639.357	11.3398
639.55	14.29357
639.743	12.60055
639.935	11.73809
640.128	14.82355
640.321	12.16571
640.514	11.6871
640.707	16.14773
640.899	12.60062
641.092	8.01255
641.285	27.22216
641.477	7.22122
641.67	16.69713
641.863	14.74865
642.055	11.717
642.248	10.88016
642.441	10.245
642.633	12.65121
642.826	14.52303
643.018	13.79908
643.211	16.12003
643.403	15.251
643.596	16.37741
643.788	16.22516
643.981	11.75878
644.173	13.84532
644.366	11.67531
644.558	7.7319
644.751	14.02313
644.943	8.49965
645.135	14.99306
645.328	15.22052
645.52	13.27245
645.712	14.0848
645.905	19.30036
646.097	9.59967
646.289	12.55009
646.482	16.80053
646.674	10.71202
646.866	14.67039
647.058	13.21477
647.251	9.66349
647.443	10.81044
647.635	11.94275
647.827	9.77689
648.019	10.45387
648.211	11.33217
648.404	11.8742
648.596	15.73016
648.788	12.31839
648.98	12.03383
649.172	13.12309
649.364	13.04952
649.556	8.20983
649.748	18.98108
649.94	10.12781
650.132	13.72129
650.324	9.99722
650.516	10.67546
650.708	14.78867
650.9	8.76585
651.092	8.29821
651.284	8.96741
651.476	9.77391
651.667	13.70736
651.859	15.24155
652.051	11.82375
652.243	12.16009
652.435	11.22952
652.627	13.66804
652.818	12.48569
653.01	9.19854
653.202	9.6883
653.394	11.2154
653.585	13.49152
653.777	23.19034
653.969	15.3027
654.16	14.42578
654.352	9.60788
654.544	10.84943
654.735	14.84941
654.927	12.5965
655.118	15.56993
655.31	13.16168
655.502	14.96423
655.693	10.99536
655.885	14.32794
656.076	15.8926
656.268	13.43231
656.459	16.59617
656.651	15.55291
656.842	11.25969
657.034	10.46127
657.225	14.70538
657.416	15.74863
657.608	15.75609
657.799	12.59661
657.99	15.03219
658.182	11.41058
658.373	11.40745
658.564	14.41936
658.756	12.91456
658.947	12.4672
659.138	10.30178
659.33	11.23675
659.521	11.03694
659.712	12.56012
659.903	11.99195
660.094	11.58609
660.286	9.26354
660.477	16.73561
660.668	14.24329
660.859	12.17209
661.05	8.63314
661.241	14.40869
661.432	14.1222
661.623	11.90277
661.814	11.58126
662.006	8.95378
662.197	12.9322
662.388	15.67778
662.579	13.24337
662.77	20.20191
662.96	20.23628
663.151	14.64779
663.342	8.71233
663.533	13.69564
663.724	13.52016
663.915	17.67585
664.106	13.00333
664.297	17.88194
664.488	14.8075
664.678	11.4688
664.869	15.35095
665.06	16.27199
665.251	13.82337
665.442	14.84778
665.632	10.12573
665.823	18.35993
666.014	5.15458
666.204	15.38614
666.395	17.2587
666.586	21.05875
666.776	15.958
666.967	17.76161
667.158	14.07909
667.348	17.18254
667.539	11.21903
667.729	16.65076
667.92	11.24805
668.111	16.47476
668.301	15.08734
668.492	13.35013
668.682	13.51583
668.873	12.92674
669.063	11.09253
669.253	13.74363
669.444	16.35245
669.634	13.09735
669.825	18.69021
670.015	17.16969
670.206	10.76362
670.396	18.972
670.586	12.76712
670.777	15.71013
670.967	7.09347
671.157	12.46399
671.347	11.66007
671.538	18.62421
671.728	14.73812
671.918	19.63535
672.108	16.21955
672.299	12.8543
672.489	14.78459
672.679	11.82141
672.869	14.62829
673.059	20.26835
673.249	16.49054
673.44	10.11377
673.63	13.71789
673.82	17.09935
674.01	10.99845
674.2	15.281
674.39	23.27367
674.58	16.80339
674.77	14.03798
674.96	14.05756
675.15	27.14588
675.34	18.5088
675.53	14.5417
675.72	14.36103
675.91	9.74331
676.099	19.84651
676.289	22.2525
676.479	17.5565
676.669	12.85235
676.859	15.45502
677.049	12.22759
677.238	13.73355
677.428	21.08674
677.618	14.93065
677.808	18.67539
677.997	15.96383
678.187	11.19006
678.377	14.65671
678.567	12.75077
678.756	12.4673
678.946	14.26468
679.136	10.63322
679.325	12.2831
679.515	11.82648
679.704	10.92319
679.894	16.35346
680.084	16.07257
680.273	17.41652
680.463	12.31232
680.652	12.06566
680.842	14.35805
681.031	17.50346
681.221	12.52485
681.41	16.34555
681.6	13.77395
681.789	16.9415
681.978	19.16378
682.168	15.61641
682.357	15.54183
682.547	16.79787
682.736	15.43502
682.925	19.32565
683.115	18.54357
683.304	17.43471
683.493	16.03893
683.682	16.10416
683.872	16.93484
684.061	19.28533
684.25	17.91847
684.439	21.45835
684.629	17.94338
684.818	27.70509
685.007	15.16603
685.196	14.44961
685.385	22.13886
685.574	16.81403
685.763	17.18175
685.952	17.13194
686.142	12.07688
686.331	19.95408
686.52	10.3635
686.709	21.40654
686.898	21.33811
687.087	18.45718
687.276	22.66882
687.465	19.57023
687.654	16.04409
687.842	21.65116
688.031	12.79289
688.22	22.16006
688.409	16.73246
688.598	16.65196
688.787	26.65191
688.976	16.53524
689.165	23.71526
689.353	14.84234
689.542	17.71803
689.731	20.31934
689.92	23.98238
690.108	20.28145
690.297	15.43497
690.486	17.12975
690.675	20.08485
690.863	23.68968
691.052	23.61979
691.241	17.99174
691.429	17.91056
691.618	23.37328
691.806	12.00939
691.995	16.25456
692.184	18.0375
692.372	16.05468
692.561	18.08537
692.749	17.72291
692.938	29.31638
693.126	19.7043
693.315	18.73001
693.503	20.92839
693.692	21.11743
693.88	23.01467
694.068	27.11714
694.257	17.50766
694.445	19.39055
694.634	10.14905
694.822	21.76165
695.01	23.36239
695.199	23.93905
695.387	24.57937
695.575	23.16843
695.763	17.53168
695.952	16.02005
696.14	12.50139
696.328	15.86412
696.516	19.2578
696.705	19.04618
696.893	18.90758
697.081	11.1558
697.269	21.69936
697.457	14.41086
697.645	13.80954
697.833	20.80735
698.021	15.09536
698.21	15.99767
698.398	17.57948
698.586	13.50526
698.774	12.55083
698.962	16.73973
699.15	14.07355
699.338	12.0617
699.526	18.75893
699.714	15.2118
699.901	15.3262
700.089	21.56712
700.277	14.76102
700.465	16.83692
700.653	21.34225
700.841	19.6778
701.029	14.75316
701.217	22.0063
701.404	18.46985
701.592	25.24173
701.78	27.97045
701.968	16.96339
702.155	17.49725
702.343	11.56558
702.531	24.95447
702.718	20.23692
702.906	17.33731
703.094	16.26584
703.281	25.28594
703.469	19.09837
703.657	24.09564
703.844	33.54539
704.032	27.63655
704.219	17.04747
704.407	21.028
704.595	24.94605
704.782	19.8725
704.97	17.53575
705.157	18.90556
705.345	26.05819
705.532	33.05641
705.719	21.57357
705.907	25.5719
706.094	19.49269
706.282	28.34596
706.469	19.22785
706.656	21.02648
706.844	19.43885
707.031	25.26064
707.218	21.75139
707.406	28.33172
707.593	24.96173
707.78	24.5163
707.968	18.95823
708.155	17.33221
708.342	23.58167
708.529	23.30507
708.716	22.39169
708.904	29.59079
709.091	23.52985
709.278	15.19446
709.465	32.00942
709.652	29.14568
709.839	27.67625
710.026	22.31765
710.213	12.93676
710.4	23.48252
710.587	25.6153
710.774	28.61884
710.961	26.96385
711.148	21.35133
711.335	27.69128
711.522	21.36641
711.709	24.15297
711.896	33.00062
712.083	26.70821
712.27	18.07112
712.457	22.69918
712.644	14.31738
712.831	33.73718
713.017	24.12345
713.204	25.76888
713.391	20.14742
713.578	28.86488
713.765	31.12233
713.951	26.23826
714.138	41.53291
714.325	26.44566
714.512	23.63436
714.698	19.49589
714.885	31.75296
715.072	25.53015
715.258	24.4862
715.445	20.52189
715.631	30.15524
715.818	11.51646
716.005	21.20462
716.191	27.05005
716.378	22.22703
716.564	28.16355
716.751	19.57392
716.937	21.73268
717.124	30.02743
717.31	19.51519
717.497	33.3378
717.683	20.69395
717.869	36.76945
718.056	22.13703
718.242	27.91377
718.429	22.70061
718.615	18.33282
718.801	25.79452
718.988	30.14983
719.174	27.75232
719.36	26.98167
719.547	30.80585
719.733	26.65346
719.919	27.60342
720.105	31.23614
720.291	25.02738
720.478	25.80749
720.664	24.08167
720.85	21.59649
721.036	42.55758
721.222	35.97736
721.408	25.51685
721.595	37.94459
721.781	36.63374
721.967	32.47581
722.153	37.55682
722.339	30.13064
722.525	27.95992
722.711	20.18895
722.897	18.45904
723.083	23.64434
723.269	31.81452
723.455	43.71362
723.641	47.6218
723.827	27.41697
724.012	30.46085
724.198	24.13135
724.384	35.12618
724.57	30.51103
724.756	18.25506
724.942	14.08295
725.127	33.09285
725.313	36.62967
725.499	35.19785
725.685	40.06507
725.87	28.17564
726.056	18.95754
726.242	35.32867
726.428	17.26657
726.613	34.27101
726.799	24.21253
726.985	20.80509
727.17	18.07621
727.356	39.52551
727.541	21.26685
727.727	25.82762
727.913	31.71656
728.098	22.95337
728.284	32.099
728.469	18.66257
728.655	20.77376
728.84	32.82952
729.026	30.71177
729.211	34.28751
729.397	31.14161
729.582	30.85141
729.767	27.68212
729.953	29.94918
730.138	35.23961
730.323	13.4675
730.509	20.29383
730.694	40.00656
730.879	31.24064
731.065	27.15658
731.25	44.02935
731.435	32.94296
731.621	17.6149
731.806	23.64922
731.991	30.84468
732.176	17.73773
732.361	38.154
732.547	31.91587
732.732	16.87069
732.917	45.3958
733.102	19.39404
733.287	22.1353
733.472	29.38501
733.657	28.76881
733.842	16.87685
734.027	24.65604
734.212	25.74193
734.397	23.1076
734.582	27.56742
734.767	33.60695
734.952	38.9477
735.137	9.84543
735.322	38.84316
735.507	29.63673
735.692	29.16413
735.877	44.99461
736.062	42.45951
736.247	31.54091
736.431	28.96761
736.616	36.21674
736.801	32.82014
736.986	29.46172
737.171	24.26982
737.355	16.83717
737.54	37.79937
737.725	29.72031
737.909	50.09341
738.094	23.68285
738.279	37.06252
738.463	27.70488
738.648	34.91378
738.833	31.73311
739.017	45.72114
739.202	29.21781
739.386	28.9097
739.571	23.46628
739.756	36.22571
739.94	29.61918
740.125	37.04337
740.309	25.50408
740.494	36.25764
740.678	30.83146
740.863	34.56535
741.047	32.20384
741.231	40.54925
741.416	25.19037
741.6	44.37772
741.785	23.58307
741.969	38.48495
742.153	42.55892
742.338	15.24933
742.522	28.46999
742.706	37.75385
742.89	19.50885
743.075	31.89456
743.259	41.21754
743.443	39.07446
743.627	42.02879
743.812	52.32581
743.996	11.96358
744.18	28.73393
744.364	25.28009
744.548	52.41816
744.732	29.59949
744.916	36.61523
745.1	37.50391
745.285	30.30972
745.469	37.4867
745.653	47.47453
745.837	21.94055
746.021	52.91826
746.205	41.73781
746.389	34.78445
746.573	29.74693
746.757	44.1261
746.94	29.41904
747.124	42.68695
747.308	20.61557
747.492	41.19797
747.676	29.14255
747.86	55.54158
748.044	27.91029
748.227	16.5325
748.411	69.24306
748.595	38.38213
748.779	23.97265
748.963	35.71747
749.146	35.66858
749.33	25.72941
749.514	24.7517
749.697	42.30993
749.881	25.05773
750.065	20.51061
750.248	34.41358
750.432	55.04514
750.616	33.72482
750.799	18.21869
750.983	54.80498
751.166	61.04032
751.35	16.82432
751.533	37.85455
751.717	45.91143
751.9	47.43341
752.084	29.62873
752.267	19.65931
752.451	27.44249
752.634	33.93363
752.818	37.36416
753.001	40.58309
753.184	44.23764
753.368	37.78839
753.551	4.41872
753.734	26.19966
753.918	54.76501
754.101	26.38747
754.284	38.95489
754.467	29.78038
754.651	28.33533
754.834	29.38434
755.017	46.98388
755.2	46.27846
755.384	22.27042
755.567	42.38814
755.75	42.32727
755.933	30.20995
756.116	34.61711
756.299	29.66754
756.482	26.72744
756.665	39.79981
756.848	34.57137
757.032	39.81671
757.215	18.57001
757.398	27.59176
757.581	23.3162
757.764	60.95396
757.947	31.73694
758.129	47.26622
758.312	4.51328
758.495	31.97693
758.678	34.79382
758.861	30.42741
759.044	54.98822
759.227	28.07624
759.41	25.48975
759.592	42.49646
759.775	35.71146
759.958	46.04849
760.141	21.07341
760.324	59.74965
760.506	50.26713
760.689	41.92499
760.872	61.9299
761.054	41.46834
761.237	30.12146
761.42	37.31935
761.602	45.36015
761.785	39.7792
761.968	44.00371
762.15	53.1171
762.333	30.79337
762.515	37.91796
762.698	27.68624
762.88	41.97703
763.063	37.36962
763.245	41.96675
763.428	25.38804
763.61	28.0607
763.793	21.89236
763.975	37.45341
764.158	27.55854
764.34	28.12117
764.522	25.53578
764.705	31.74339
764.887	46.17068
765.069	20.10979
765.252	41.99322
765.434	40.24291
765.616	33.0777
765.799	25.58706
765.981	42.80326
766.163	25.64638
766.345	42.80364
766.528	26.56523
766.71	11.59282
766.892	36.30825
767.074	49.79682
767.256	31.63467
767.438	54.14742
767.62	40.08847
767.802	60.23221
767.985	45.8273
768.167	59.91086
768.349	32.01237
768.531	41.24513
768.713	41.88077
768.895	46.70441
769.077	40.01587
769.259	69.44769
769.441	98.06395
769.623	51.01771
769.804	57.28489
769.986	58.17223
770.168	70.86589
770.35	82.76407
770.532	64.43661
770.714	63.56301
770.896	67.94355
771.077	23.85038
771.259	71.47989
771.441	57.92821
771.623	79.83797
771.804	96.66605
771.986	25.767
772.168	42.25419
772.35	72.65526
772.531	100.66326
772.713	61.92963
772.894	79.98506
773.076	56.22041
773.258	45.58849
773.439	78.72892
773.621	85.34703
773.802	37.55039
773.984	51.66179
774.166	63.56876
774.347	92.37657
774.529	75.44465
774.71	21.29809
774.891	50.82001
775.073	49.0414
775.254	90.52299
775.436	43.41025
775.617	94.93597
775.799	46.54273
775.98	82.87092
776.161	88.0697
776.343	92.96188
776.524	59.83355
776.705	48.59694
776.886	27.01129
777.068	62.59519
777.249	116.14222
777.43	99.31629
777.611	36.2481
777.793	56.70616
777.974	88.50158
778.155	47.6372
778.336	44.72856
778.517	100.19239
778.698	43.57095
778.879	22.3677
779.061	6.27148
779.242	69.4957
779.423	65.41379
779.604	44.70546
779.785	53.94028
779.966	64.46817
780.147	80.16003
780.328	77.7748
780.509	110.91313
780.69	75.10378
780.871	47.72349
781.051	26.11515
781.232	60.70917
781.413	63.67576
781.594	47.67815
781.775	51.69363
781.956	45.55937
782.137	26.60049
782.317	47.71324
782.498	61.81124
782.679	67.07301
782.86	58.83213
783.04	39.87034
783.221	66.54552
783.402	98.8852
783.583	58.77437
783.763	77.33186
783.944	48.01236
784.124	31.40757
784.305	92.25143
784.486	69.48934
784.666	55.08689
784.847	24.62494
785.027	118.77911
785.208	45.23193
785.388	43.88792
785.569	43.56766
785.749	50.21407
785.93	46.08526
786.11	32.28928
786.291	62.47253
786.471	62.6018
786.652	74.35797
786.832	54.77597
787.012	68.22833
787.193	35.02938
787.373	59.23511
787.553	52.19503
787.734	64.96827
787.914	50.33571
788.094	70.40203
788.275	65.45788
788.455	46.61084
788.635	31.23667
788.815	62.67026
788.995	36.86031
789.176	31.47857
789.356	40.36105
789.536	52.50709
789.716	67.66968
789.896	44.35608
790.076	46.03079
790.256	63.77652
790.436	16.47174
790.616	40.23247
790.796	59.93787
790.976	46.56105
791.156	43.83645
791.336	71.22779
791.516	62.93502
791.696	51.64685
791.876	27.92999
792.056	59.42646
792.236	84.20947
792.416	71.78083
792.596	66.96798
792.776	67.37732
792.956	72.49944
793.135	93.87241
793.315	32.99539
793.495	79.63863
793.675	71.84797
793.854	77.61537
794.034	74.52987
794.214	34.46533
794.394	75.28081
794.573	80.0609
794.753	57.59428
794.933	41.46295
795.112	61.48373
795.292	74.17932
795.472	92.40947
795.651	33.88278
795.831	58.70859
796.01	47.25843
796.19	47.45354
796.369	54.10982
796.549	64.57071
796.728	53.89932
796.908	32.62849
797.087	30.11691
797.267	52.96017
797.446	33.34386
797.626	61.32677
797.805	66.18172
797.984	44.6926
798.164	72.9555
798.343	41.47402
798.522	62.56904
798.702	59.29778
798.881	37.45964
799.06	53.24018
799.239	19.65887
799.419	34.85932
799.598	88.96226
799.777	68.31583
799.956	77.33593
800.136	55.07819
800.315	40.83962
800.494	67.23253
800.673	81.66336
800.852	69.54774
801.031	83.93535
801.21	67.98786
801.389	49.45349
801.568	62.39787
801.747	95.32929
801.926	52.74713
802.105	90.49529
802.284	52.17198
802.463	89.95442
802.642	61.43575
802.821	64.42681
803	85.89382
803.179	77.16477
803.358	86.8992
803.537	44.15746
803.716	62.3948
803.895	45.37993
804.073	51.30775
804.252	50.58474
804.431	67.75721
804.61	56.84321
804.789	87.88514
804.967	48.17682
805.146	46.34319
805.325	104.68419
805.503	72.97349
805.682	31.06953
805.861	125.16777
806.039	90.40445
806.218	42.3088
806.397	68.7161
806.575	65.29801
806.754	65.05509
806.932	42.45258
807.111	93.02464
807.289	78.56195
807.468	65.56961
807.646	79.30832
807.825	68.47279
808.003	62.06011
808.182	79.00691
808.36	63.12891
808.539	40.42674
808.717	96.92193
808.895	44.38955
809.074	67.83065
809.252	54.59737
809.43	85.32361
809.609	92.13493
809.787	101.5947
809.965	53.40967
810.144	66.35325
810.322	53.12546
810.5	73.73214
810.678	62.29941
810.856	107.87656
811.035	89.32937
811.213	92.14793
811.391	78.96472
811.569	68.92103
811.747	142.95587
811.925	95.43344
812.103	48.16908
812.281	53.68127
812.459	112.90695
812.637	106.60454
812.816	96.8057
812.994	114.93713
813.171	96.6482
813.349	88.57099
813.527	103.3234
813.705	100.06331
813.883	120.7209
814.061	100.67097
814.239	119.42162
814.417	116.48991
814.595	88.56084
814.773	79.08573
814.95	77.87626
815.128	79.54475
815.306	66.45567
815.484	66.49133
815.662	55.31545
815.839	46.31711
816.017	56.51335
816.195	97.95684
816.372	66.01062
816.55	95.51697
816.728	107.61087
816.905	65.78836
817.083	107.49904
817.261	64.67005
817.438	142.56491
817.616	124.16359
817.793	49.38276
817.971	85.16741
818.148	81.49641
818.326	112.96244
818.503	76.36135
818.681	100.71389
818.858	58.6693
819.036	69.19938
819.213	69.44066
819.391	53.12324
819.568	48.46748
819.745	42.30516
819.923	82.58638
820.1	53.87818
820.277	48.69155
820.455	53.7815
820.632	59.39704
820.809	62.05515
820.986	37.97218
821.164	29.00444
821.341	26.86611
821.518	39.31096
821.695	29.65097
821.872	28.11079
822.05	24.00362
822.227	19.73356
822.404	21.30426
822.581	24.63969
822.758	21.92755
822.935	21.47748
823.112	24.80119
823.289	20.47051
823.466	24.56505
823.643	23.13749
823.82	27.92451
823.997	24.33293
824.174	29.0681
824.351	36.61914
824.528	34.69173
824.705	32.25029
824.882	36.16963
825.059	44.40326
825.236	33.09828
825.412	33.1011
825.589	42.19531
825.766	60.35827
825.943	37.05064
826.12	43.32704
826.296	30.14075
826.473	38.82716
826.65	38.62728
826.827	47.94357
827.003	32.51116
827.18	35.09512
827.357	41.00166
827.533	33.61474
827.71	19.444
827.887	29.88482
828.063	35.54314
828.24	31.29857
828.416	38.48579
828.593	33.26405
828.769	50.89411
828.946	51.65019
829.122	52.74001
829.299	52.25104
829.475	26.05983
829.652	51.31665
829.828	84.99183
830.005	49.24864
830.181	73.05443
830.357	48.04777
830.534	75.58528
830.71	57.36667
830.886	77.07123
831.063	69.67653
831.239	95.33577
831.415	42.62702
831.592	103.24384
831.768	57.16277
831.944	53.36192
832.12	102.32926
832.296	94.59489
832.473	78.12842
832.649	50.68725
832.825	74.37995
833.001	43.64155
833.177	64.56154
833.353	57.96572
833.529	32.00675
833.705	48.3994
833.881	34.29107
834.058	39.28972
834.234	36.7043
834.41	37.64658
834.586	28.36372
834.761	32.59893
834.937	37.63468
835.113	39.58921
835.289	33.68264
835.465	42.45178
835.641	35.57409
835.817	41.2874
835.993	76.62003
836.169	36.05823
836.344	55.56298
836.52	68.47602
836.696	72.40966
836.872	48.99414
837.048	147.73938
837.223	55.23615
837.399	130.76289
837.575	99.95429
837.75	88.17951
837.926	127.56724
838.102	208.34214
838.277	164.13254
838.453	220.38829
838.628	211.48655
838.804	64.32932
838.98	203.08816
839.155	91.17444
839.331	130.43084
839.506	89.05755
839.682	90.23016
839.857	109.87439
840.033	130.98553
840.208	58.55707
840.384	29.26021
840.559	64.97731
840.734	100.77535
840.91	147.04514
841.085	92.68808
841.26	88.54019
841.436	75.78365
841.611	73.78413
841.786	111.56992
841.962	155.74927
842.137	122.85941
842.312	61.11916
842.487	88.90364
842.663	77.2234
842.838	91.1237
843.013	311.02547
843.188	181.14727
843.363	127.5244
843.538	292.65956
843.714	357.71939
843.889	301.34189
844.064	298.38582
844.239	228.29937
844.414	487.80537
844.589	230.5142
844.764	383.73226
844.939	390.50081
845.114	415.92691
845.289	440.00761
845.464	497.76529
845.639	377.56734
845.814	197.35581
845.989	306.1542
846.163	248.97108
846.338	318.17068
846.513	418.50931
846.688	251.5849
846.863	314.11788
847.038	244.3402
847.212	292.994
847.387	345.77887
847.562	257.89157
847.737	456.47089
847.911	198.22411
848.086	194.0167
848.261	449.92442
848.435	273.8604
848.61	372.24731
848.785	169.15692
848.959	402.80472
849.134	458.59897
849.308	654.28532
849.483	317.31569
849.658	530.8786
849.832	264.57277
850.007	214.26642
850.181	655.59833
850.356	289.88389
850.53	747.22021
850.705	342.40864
850.879	117.20286
851.053	282.05075
851.228	309.52945
851.402	508.20558
851.577	470.02639
851.751	600.82277
851.925	339.95313
852.099	139.47036
852.274	233.62826
852.448	289.05654
852.622	457.0643
852.797	339.92326
852.971	344.09685
853.145	417.80767
853.319	725.6271
853.493	648.78417
853.668	497.218
853.842	767.47477
854.016	499.3721
854.19	717.49929
854.364	333.76886
854.538	331.1265
854.712	741.2579
854.886	420.02278
855.06	303.52217
855.234	97.19246
855.408	622.05211
855.582	402.88654
855.756	650.80517
855.93	579.87857
856.104	620.2605
856.278	555.42697
856.452	349.70048
856.626	381.34843
856.8	931.00474
856.973	390.01655
857.147	459.18928
857.321	463.38913
857.495	512.5272
857.669	355.59653
857.842	425.79664
858.016	611.57389
858.19	231.36556
858.364	775.63532
858.537	385.71371
858.711	513.642
858.885	417.13722
859.058	242.83243
859.232	137.41554
859.405	130.06572
859.579	487.98778
859.753	537.35698
859.926	234.45946
860.1	237.92346
860.273	377.89431
860.447	471.18346
860.62	364.43939
860.794	606.22653
860.967	334.06709
861.141	464.02596
861.314	797.26892
861.487	467.06709
861.661	482.53768
861.834	539.49043
862.008	690.55545
862.181	449.97836
862.354	525.51244
862.528	494.17969
862.701	305.71379
862.874	200.9984
863.047	288.26624
863.221	283.74271
863.394	188.48487
863.567	408.14089
863.74	150.73787
863.913	481.81403
864.087	497.27159
864.26	483.10733
864.433	381.16087
864.606	604.13093
864.779	370.05887
864.952	161.68085
865.125	425.88267
865.298	301.96414
865.471	353.02704
865.644	751.90341
865.817	488.03266
865.99	490.60983
866.163	436.23687
866.336	221.03973
866.509	314.80756
866.682	516.62589
866.855	715.10915
867.028	189.51831
867.2	395.78867
867.373	107.68391
867.546	384.58977
867.719	703.02384
867.892	425.50911
868.064	265.20481
868.237	311.92422
868.41	374.46877
868.583	162.22126
868.755	210.42488
868.928	412.95
869.101	801.34117
869.273	558.67342
869.446	536.02463
869.619	579.07121
869.791	379.27595
869.964	486.32457
870.136	851.63646
870.309	354.34206
870.481	395.51898
870.654	205.37183
870.826	308.32158
870.999	226.89418
871.171	419.13825
871.344	243.30677
871.516	271.02171
871.689	241.71667
871.861	304.73352
872.033	268.24593
872.206	257.13926
872.378	338.91882
872.55	341.19528
872.723	202.12578
872.895	333.9381
873.067	439.25496
873.24	375.95533
873.412	314.26144
873.584	364.96624
873.756	320.88565
873.928	469.41886
874.101	353.48944
874.273	411.86322
874.445	129.73992
874.617	212.665
874.789	304.62018
874.961	318.25302
875.133	356.13949
875.305	384.90452
875.477	291.01892
875.649	158.65657
875.821	176.75559
875.993	605.50479
876.165	321.50031
876.337	367.22108
876.509	320.08802
876.681	403.91025
876.853	352.48717
877.025	350.36639
877.197	239.66207
877.369	161.12459
877.541	329.4886
877.712	81.92662
877.884	185.86781
878.056	341.3443
878.228	180.66255
878.4	402.31598
878.571	167.89018
878.743	119.72791
878.915	281.29567
879.086	133.03699
879.258	179.32983
879.43	171.37327
879.601	135.60621
879.773	133.81744
879.945	28.86607
880.116	53.99973
880.288	32.14493
880.459	36.64987
880.631	29.4166
880.802	32.88777
880.974	30.71508
881.145	22.22915
881.317	29.81843
881.488	23.58127
881.66	25.92697
881.831	24.71528
882.002	31.08928
882.174	25.15023
882.345	30.59543
882.517	17.25927
882.688	37.48
882.859	28.11238
883.03	49.34958
883.202	45.38755
883.373	37.65324
883.544	38.70906
883.715	64.87659
883.887	54.90005
884.058	48.7132
884.229	71.28865
884.4	72.93232
884.571	86.68764
884.742	70.04021
884.914	79.09666
885.085	111.95432
885.256	159.90836
885.427	137.25204
885.598	162.90764
885.769	161.03998
885.94	174.3255
886.111	102.18983
886.282	199.37276
886.453	156.15607
886.624	106.80571
886.795	230.03962
886.966	175.16324
887.136	220.48028
887.307	155.84891
887.478	329.99327
887.649	270.002
887.82	255.13084
887.991	225.02558
888.161	344.73467
888.332	333.33947
888.503	141.82385
888.674	381.70483
888.844	517.55037
889.015	344.79482
889.186	213.54462
889.356	487.25483
889.527	171.00926
889.698	653.83201
889.868	284.58777
890.039	403.22048
890.209	279.2923
890.38	394.51157
890.551	355.87676
890.721	403.0952
890.892	479.00546
891.062	414.32725
891.233	486.88371
891.403	447.13009
891.574	241.11621
891.744	250.01842
891.914	328.2662
892.085	347.43086
892.255	122.26708
892.425	441.35498
892.596	299.08986
892.766	383.89411
892.936	449.55786
893.107	407.76489
893.277	153.18773
893.447	195.75974
893.618	102.09272
893.788	186.92093
893.958	121.23166
894.128	93.61667
894.298	119.6593
894.468	156.61869
894.639	68.61036
894.809	36.15941
894.979	69.57714
895.149	85.79985
895.319	67.18583
895.489	102.67891
895.659	139.8723
895.829	84.52094
895.999	86.25232
896.169	75.34838
896.339	90.80622
896.509	196.75169
896.679	198.18139
896.849	235.2528
897.019	275.40665
897.189	242.56999
897.358	219.09085
897.528	349.77512
897.698	187.25947
897.868	323.02786
898.038	644.63061
898.208	607.539
898.377	220.391
898.547	1054.32576
898.717	1399.00564
898.886	418.58837
899.056	632.70189
899.226	1465.71443
899.395	764.56759
899.565	1252.58991
899.735	813.72355
899.904	890.65274
900.074	1025.50238
900.244	279.46458
900.413	1216.78909
900.583	420.87773
900.752	1259.22012
900.922	996.9831
901.091	219.29685
901.261	1664.90828
901.43	496.97606
901.599	2355.94954
901.769	1418.33812
901.938	1090.56699
902.108	1615.35116
902.277	786.42457
902.446	433.07256
902.616	407.47644
902.785	541.51868
902.954	697.68114
903.124	503.66884
903.293	271.25146
903.462	123.71676
903.631	201.21504
903.801	144.39172
903.97	60.79158
904.139	115.4342
904.308	85.13811
904.477	69.4061
904.646	35.09495
904.816	64.42702
904.985	103.71619
905.154	150.9166
