Data from WindowProjectSample_Transmission__11__00011__02444388233614323.txt Node

Date: Mon May 05 16:55:18 EDT 2025
User: jessi
Spectrometer: SR400872
Trigger mode: 0
Integration Time (sec): 5.000010E-1
Scans to average: 20
Electric dark correction enabled: true
Nonlinearity correction enabled: true
Boxcar width: 0
XAxis mode: Wavelengths
Number of Pixels in Spectrum: 3648
>>>>>Begin Spectral Data<<<<<
184.909	21616.47591
185.132	-5096.35713
185.355	-2988.62691
185.578	-17825.95001
185.801	1674.62832
186.024	10154.28788
186.247	-1902.89363
186.47	967.65309
186.693	342.80189
186.916	318.65532
187.139	-3548.42175
187.362	3405.43338
187.585	4718.51956
187.808	3533.5674
188.031	-2.95167
188.254	-50572.57683
188.476	-1618.85063
188.699	6195.36499
188.922	555.41334
189.145	-15168.39852
189.368	-612.18252
189.591	-1663.64832
189.813	3115.59086
190.036	-47836.60561
190.259	-835.03654
190.482	-4175.59775
190.705	6786.44988
190.927	-2518.77125
191.15	12947.38045
191.373	3106.53674
191.595	-8151.34255
191.818	-4122.04763
192.041	-5904.5766
192.263	-3147.54327
192.486	-842.32123
192.709	-3708.61722
192.931	7524.70613
193.154	-27075.33443
193.377	-2911.34069
193.599	-2538.29471
193.822	-9018.53753
194.044	-1839.30959
194.267	1180.15158
194.489	307.59762
194.712	-42306.73064
194.934	-30922.2732
195.157	1054.07806
195.379	1389.5288
195.602	-6404.39626
195.824	-1289.07586
196.047	-8391.46399
196.269	2614.24447
196.492	-6461.29309
196.714	28139.16631
196.936	-8569.63818
197.159	-1145.02667
197.381	991.505
197.604	459.92617
197.826	11509.36399
198.048	-9813.33563
198.271	-2722.37043
198.493	7354.59829
198.715	2325.36987
198.938	-500.67599
199.16	6966.95761
199.382	-98054.70507
199.604	2371.08677
199.827	-1071.21023
200.049	-2928.56236
200.271	13118.21915
200.493	1160.78862
200.715	-36690.06956
200.938	-6005.03997
201.16	-4244.44659
201.382	20629.09527
201.604	2265.23134
201.826	2244.47841
202.048	-1913.29827
202.27	-1796.35541
202.492	-34770.20618
202.715	2886.65599
202.937	-4368.61685
203.159	-5841.41428
203.381	1338.41363
203.603	6294.96336
203.825	6200.20243
204.047	2199.42367
204.269	-2780.61227
204.491	2156.20515
204.713	5759.42288
204.935	-472259.2975
205.156	1068.05078
205.378	-2850.02584
205.6	1588.73998
205.822	149135.55365
206.044	-902.9341
206.266	1507.33359
206.488	4146.54016
206.71	-5104.19386
206.932	1091.28097
207.153	12271.51232
207.375	-6716.38331
207.597	-37137.379
207.819	-2712.35344
208.041	2377.45407
208.262	446.88966
208.484	745.13075
208.706	-827.38385
208.927	-820.67035
209.149	554.10242
209.371	-2834.7655
209.593	-254.04197
209.814	-768.30403
210.036	630.32072
210.258	-631.85057
210.479	1764.74125
210.701	1456.0649
210.922	3046.30702
211.144	-3745.69734
211.366	2018.19166
211.587	7454.1369
211.809	-7933.90057
212.03	2250.90319
212.252	385.99121
212.473	2041.06547
212.695	-5719.88903
212.916	2670.12975
213.138	-555.18326
213.359	3557.49555
213.581	5127.86183
213.802	-876.55069
214.024	1129.68221
214.245	1972.69928
214.466	1321.86742
214.688	-3087.76351
214.909	-1069.01778
215.131	-1706.37311
215.352	-2907.62393
215.573	14560.15754
215.795	5190.98852
216.016	5014.34388
216.237	766.76294
216.459	3488.19077
216.68	1710.59765
216.901	5033.153
217.122	-3149.94654
217.344	-11120.25235
217.565	3280.72415
217.786	8639.43071
218.007	14994.82649
218.228	-684.23651
218.45	5303.22354
218.671	774.95843
218.892	34454.58744
219.113	1500.90693
219.334	-462.29513
219.555	9809.64779
219.776	2884.79539
219.997	22003.6553
220.219	2720.69837
220.44	-10234.1445
220.661	441.73737
220.882	1433.6751
221.103	-1110.56238
221.324	2245.29943
221.545	2261.74099
221.766	-8977.67309
221.987	914.34951
222.208	1606.3189
222.429	4212.83259
222.65	305.63979
222.87	18723.98074
223.091	691.50338
223.312	559.92564
223.533	1330.66238
223.754	1487.07365
223.975	1339.97197
224.196	1939.39126
224.417	1295.03896
224.637	655.95647
224.858	57.66028
225.079	1068.98801
225.3	652.01016
225.521	3741.97867
225.741	482.39322
225.962	457.30122
226.183	116.57621
226.404	651.02415
226.624	428.82309
226.845	663.65704
227.066	395.77864
227.286	245.50533
227.507	115.41475
227.728	113.03074
227.948	231.01117
228.169	70.10551
228.389	81.58381
228.61	42.0632
228.831	60.48531
229.051	1.80098
229.272	38.59667
229.492	55.91772
229.713	11.97593
229.933	36.35201
230.154	30.82093
230.374	52.06518
230.595	35.92513
230.815	22.06915
231.036	37.46845
231.256	-10.03319
231.477	69.24356
231.697	35.54916
231.917	37.61405
232.138	54.05135
232.358	106.71791
232.579	100.53156
232.799	17.62153
233.019	97.26175
233.24	109.27893
233.46	35.2814
233.68	58.40234
233.901	36.91004
234.121	26.01566
234.341	12.93969
234.561	-3.15348
234.782	22.84956
235.002	63.67299
235.222	-4.95127
235.442	64.14443
235.662	31.71908
235.883	58.98574
236.103	47.44098
236.323	35.88608
236.543	28.82931
236.763	37.65413
236.983	41.76832
237.203	39.10474
237.423	55.89821
237.643	85.76074
237.864	69.50712
238.084	16.21968
238.304	24.98357
238.524	45.28035
238.744	37.20991
238.964	73.62913
239.184	59.50377
239.404	61.35917
239.624	32.3784
239.843	58.36403
240.063	34.33169
240.283	20.70812
240.503	23.57597
240.723	24.30539
240.943	14.17368
241.163	19.9389
241.383	13.65196
241.603	6.80614
241.822	9.29822
242.042	6.09589
242.262	7.75625
242.482	8.86317
242.702	10.68947
242.921	2.70415
243.141	6.2639
243.361	6.18078
243.581	8.83903
243.8	6.99337
244.02	4.91002
244.24	9.045
244.459	8.77489
244.679	17.00893
244.899	11.35153
245.118	12.78615
245.338	11.48243
245.558	12.95977
245.777	7.96793
245.997	10.16689
246.216	10.06999
246.436	5.88549
246.655	4.57418
246.875	3.18454
247.094	5.99285
247.314	2.07874
247.533	3.59433
247.753	4.28077
247.972	3.28545
248.192	1.15979
248.411	1.6008
248.631	3.4799
248.85	4.58081
249.07	3.59147
249.289	5.64517
249.508	4.86787
249.728	7.41867
249.947	6.93535
250.166	8.80741
250.386	3.60786
250.605	5.93936
250.824	10.46973
251.044	7.68793
251.263	27.71503
251.482	14.16134
251.701	11.50802
251.921	-0.35229
252.14	3.19244
252.359	4.05761
252.578	9.64182
252.798	3.14547
253.017	8.86864
253.236	4.1641
253.455	5.87715
253.674	9.97022
253.893	4.55069
254.112	7.64006
254.331	10.78023
254.551	8.37511
254.77	3.8165
254.989	12.6406
255.208	9.26089
255.427	14.92016
255.646	11.49258
255.865	20.42237
256.084	8.57305
256.303	10.13528
256.522	13.34651
256.741	2.43581
256.96	2.98004
257.179	6.73329
257.397	10.9274
257.616	5.70138
257.835	5.76796
258.054	15.09592
258.273	9.92555
258.492	10.4734
258.711	6.28051
258.93	3.04591
259.148	4.63099
259.367	4.45427
259.586	5.43285
259.805	2.32185
260.023	5.08277
260.242	3.7709
260.461	2.64386
260.68	1.22744
260.898	4.35327
261.117	1.22031
261.336	0.89539
261.554	3.15638
261.773	3.17339
261.992	0.60245
262.21	3.08843
262.429	3.4475
262.648	7.05402
262.866	8.11197
263.085	5.30438
263.303	4.8873
263.522	8.45363
263.74	8.58433
263.959	14.81257
264.178	6.58064
264.396	6.32027
264.615	4.65035
264.833	10.62364
265.051	8.63846
265.27	10.2789
265.488	10.80501
265.707	6.09758
265.925	10.79532
266.144	4.6026
266.362	5.30029
266.58	5.38483
266.799	5.07565
267.017	6.22343
267.235	4.99407
267.454	3.17118
267.672	1.59558
267.89	3.95928
268.109	4.13817
268.327	4.02985
268.545	0.97898
268.763	4.00325
268.982	1.53044
269.2	4.11261
269.418	2.84506
269.636	1.60464
269.854	4.51839
270.073	3.16052
270.291	1.89365
270.509	1.93867
270.727	4.23996
270.945	6.86611
271.163	6.86837
271.381	1.37596
271.599	3.10931
271.817	5.29378
272.036	1.72108
272.254	3.05523
272.472	2.09382
272.69	2.38727
272.908	2.19906
273.126	4.28186
273.344	5.11364
273.562	1.75688
273.779	2.50253
273.997	3.63324
274.215	4.07119
274.433	2.7606
274.651	4.31047
274.869	4.56659
275.087	2.89376
275.305	3.86602
275.523	2.23497
275.74	2.73046
275.958	5.22106
276.176	8.27878
276.394	2.478
276.612	3.30964
276.829	3.03599
277.047	2.57843
277.265	2.68737
277.483	3.59102
277.7	4.14649
277.918	3.46832
278.136	6.15938
278.353	2.74523
278.571	1.68013
278.789	4.36512
279.006	0.7197
279.224	2.75853
279.442	5.01552
279.659	3.53324
279.877	2.1864
280.094	5.7289
280.312	0.9552
280.529	3.26114
280.747	0.94532
280.964	2.43614
281.182	5.92289
281.399	2.61258
281.617	3.72098
281.834	2.34452
282.052	1.83547
282.269	3.04278
282.487	2.41193
282.704	1.97745
282.921	2.23623
283.139	3.22175
283.356	3.9371
283.574	3.8304
283.791	1.59853
284.008	5.47519
284.226	2.91485
284.443	3.14649
284.66	4.4634
284.877	3.30364
285.095	1.99975
285.312	1.59476
285.529	0.79153
285.746	0.73686
285.964	1.92468
286.181	1.40907
286.398	1.8943
286.615	2.51232
286.832	2.59827
287.05	0.5315
287.267	1.72555
287.484	2.38008
287.701	2.47281
287.918	2.5862
288.135	2.70109
288.352	1.20266
288.569	1.3048
288.786	2.43455
289.003	1.97173
289.22	2.95057
289.437	1.45168
289.654	2.76778
289.871	3.07158
290.088	2.81064
290.305	2.17904
290.522	1.73783
290.739	2.01524
290.956	3.04548
291.173	3.4365
291.39	3.36222
291.607	2.33285
291.824	1.66182
292.04	1.16895
292.257	2.77228
292.474	3.21228
292.691	1.84042
292.908	0.9371
293.125	1.63517
293.341	1.18374
293.558	4.89135
293.775	1.82959
293.992	1.96825
294.208	0.9449
294.425	1.25865
294.642	1.87025
294.858	2.87529
295.075	0.6605
295.292	1.88633
295.508	2.26744
295.725	3.9618
295.942	1.53815
296.158	1.10483
296.375	1.99875
296.591	1.46772
296.808	1.60802
297.024	1.91482
297.241	2.11133
297.458	2.29552
297.674	0.10641
297.891	1.70662
298.107	1.33293
298.323	1.10879
298.54	2.95425
298.756	1.25181
298.973	0.57292
299.189	3.03827
299.406	1.09627
299.622	2.72623
299.838	2.52804
300.055	2.5947
300.271	0.57838
300.487	0.98772
300.704	1.20152
300.92	0.64307
301.136	4.04477
301.353	2.71771
301.569	1.74331
301.785	2.09801
302.001	2.54835
302.218	2.14724
302.434	2.21726
302.65	0.6407
302.866	1.48433
303.083	3.78596
303.299	3.5484
303.515	1.92673
303.731	1.91537
303.947	0.6309
304.163	1.08073
304.379	2.04418
304.595	2.39363
304.812	1.22094
305.028	1.2028
305.244	1.63476
305.46	2.51108
305.676	2.66197
305.892	3.03005
306.108	2.23989
306.324	1.50977
306.54	3.60898
306.756	2.44972
306.972	2.3743
307.187	1.74124
307.403	3.27713
307.619	1.4544
307.835	2.99706
308.051	3.34592
308.267	0.90336
308.483	2.86378
308.699	2.26753
308.914	1.92894
309.13	1.79125
309.346	0.54743
309.562	0.9685
309.778	0.67571
309.993	2.35208
310.209	1.7665
310.425	0.89433
310.641	1.66673
310.856	0.86385
311.072	0.90676
311.288	1.81374
311.503	1.81383
311.719	0.32406
311.935	0.24201
312.15	2.21825
312.366	1.74232
312.581	2.21381
312.797	1.82413
313.013	2.43722
313.228	1.19794
313.444	1.71228
313.659	1.27926
313.875	2.21592
314.09	1.59913
314.306	2.91548
314.521	2.64362
314.737	2.47518
314.952	1.75419
315.168	1.75997
315.383	2.14847
315.599	1.6893
315.814	1.52637
316.029	2.41087
316.245	0.68369
316.46	0.53674
316.675	2.87277
316.891	3.36319
317.106	4.26777
317.321	2.18456
317.537	2.29491
317.752	2.52522
317.967	2.64581
318.183	1.09426
318.398	1.56801
318.613	2.67303
318.828	3.15283
319.043	2.64269
319.259	1.71972
319.474	2.01317
319.689	3.02564
319.904	0.44691
320.119	2.44708
320.334	2.20937
320.549	1.51454
320.765	2.85121
320.98	2.09464
321.195	2.65012
321.41	1.86171
321.625	2.66007
321.84	3.51458
322.055	3.48729
322.27	1.2946
322.485	1.04997
322.7	2.28291
322.915	2.55362
323.13	1.08109
323.345	3.17463
323.56	2.81629
323.775	2.43518
323.989	2.17765
324.204	2.14537
324.419	2.88652
324.634	0.86739
324.849	1.71829
325.064	4.81828
325.279	2.74086
325.493	2.30694
325.708	2.7972
325.923	1.31328
326.138	1.3749
326.352	3.38735
326.567	2.87632
326.782	1.61482
326.997	1.31629
327.211	2.39633
327.426	2.32269
327.641	1.60346
327.855	0.62424
328.07	2.23857
328.285	3.41177
328.499	1.5248
328.714	2.04821
328.928	2.70702
329.143	1.68786
329.358	2.85579
329.572	2.87905
329.787	3.10949
330.001	4.11662
330.216	0.97484
330.43	3.45943
330.645	3.43942
330.859	2.75028
331.074	1.48203
331.288	2.18266
331.503	3.04927
331.717	1.10619
331.931	2.05424
332.146	2.09731
332.36	3.49881
332.575	2.2494
332.789	2.34172
333.003	2.07423
333.218	2.53572
333.432	1.34376
333.646	2.72228
333.86	3.35287
334.075	3.33006
334.289	1.4543
334.503	1.18313
334.717	2.37881
334.932	2.2675
335.146	2.95565
335.36	1.62049
335.574	2.55393
335.788	2.27329
336.003	2.83809
336.217	2.32031
336.431	2.44631
336.645	1.50416
336.859	0.9018
337.073	1.72008
337.287	2.21999
337.501	1.04075
337.715	2.17042
337.929	2.72196
338.143	1.00353
338.357	1.85644
338.571	1.29091
338.785	2.34419
338.999	1.59765
339.213	1.45479
339.427	0.67348
339.641	3.13005
339.855	1.691
340.069	1.39486
340.283	2.74093
340.497	3.56002
340.711	2.27372
340.924	1.67982
341.138	1.01327
341.352	0.81034
341.566	2.11824
341.78	0.55866
341.993	1.54136
342.207	1.13674
342.421	2.03012
342.635	1.80796
342.848	1.48833
343.062	0.18476
343.276	1.3073
343.49	3.53901
343.703	1.25941
343.917	2.75349
344.131	2.69906
344.344	1.29776
344.558	1.5778
344.771	0.96306
344.985	3.26899
345.199	3.04882
345.412	1.98025
345.626	2.13526
345.839	0.58739
346.053	0.95493
346.266	0.98395
346.48	2.39848
346.693	2.05664
346.907	2.03836
347.12	1.06171
347.334	2.05802
347.547	2.11335
347.76	1.67402
347.974	2.71069
348.187	2.02094
348.401	1.51095
348.614	1.23186
348.827	1.56786
349.041	2.30851
349.254	0.45966
349.467	1.4878
349.681	0.7303
349.894	1.26734
350.107	2.79725
350.32	3.15655
350.534	0.60377
350.747	1.38227
350.96	1.10678
351.173	1.18933
351.386	1.48129
351.6	1.41883
351.813	1.21661
352.026	1.57799
352.239	0.68432
352.452	1.45423
352.665	2.4615
352.878	1.60424
353.092	3.28215
353.305	2.35217
353.518	1.89309
353.731	1.0592
353.944	2.60775
354.157	1.20244
354.37	1.00972
354.583	0.96198
354.796	0.39352
355.009	2.51283
355.222	1.83782
355.435	1.69814
355.647	2.40596
355.86	0.86938
356.073	1.63493
356.286	1.13624
356.499	2.09072
356.712	1.83147
356.925	2.10453
357.138	2.2446
357.35	0.89339
357.563	1.46915
357.776	1.67452
357.989	1.34652
358.201	1.92304
358.414	1.62441
358.627	2.54388
358.84	1.34049
359.052	0.68911
359.265	0.93595
359.478	2.33214
359.69	-0.25991
359.903	2.00055
360.116	2.18705
360.328	0.37301
360.541	2.12712
360.753	0.73459
360.966	1.06707
361.179	1.19275
361.391	1.03675
361.604	0.75643
361.816	1.14524
362.029	0.92223
362.241	0.77222
362.454	0.94755
362.666	0.73891
362.879	1.4804
363.091	1.11787
363.304	0.80976
363.516	1.29826
363.728	0.61127
363.941	1.82388
364.153	1.10183
364.366	-0.12985
364.578	0.61806
364.79	1.61074
365.003	1.26076
365.215	0.98503
365.427	1.67423
365.639	2.18561
365.852	1.40583
366.064	3.10462
366.276	1.15067
366.488	1.70371
366.701	1.13017
366.913	1.33824
367.125	1.20625
367.337	0.80817
367.549	0.98622
367.762	1.46954
367.974	1.51895
368.186	0.77438
368.398	2.02233
368.61	1.83226
368.822	1.89304
369.034	1.41514
369.246	1.85732
369.458	3.47869
369.67	0.7923
369.882	2.67688
370.094	0.27404
370.306	2.67129
370.518	1.12205
370.73	0.8299
370.942	0.80973
371.154	1.26479
371.366	0.9437
371.578	1.52093
371.79	0.77856
372.002	2.15049
372.214	2.61298
372.425	1.41223
372.637	2.21278
372.849	1.60716
373.061	0.0047
373.273	1.6199
373.484	1.53755
373.696	1.95268
373.908	0.03982
374.12	2.20669
374.331	1.56413
374.543	0.84046
374.755	0.7228
374.967	1.43665
375.178	1.76592
375.39	1.12222
375.602	1.37515
375.813	0.36115
376.025	0.54168
376.236	1.36751
376.448	1.48665
376.66	0.92068
376.871	0.96993
377.083	2.31919
377.294	2.18082
377.506	0.93435
377.717	2.19765
377.929	1.37915
378.14	0.78921
378.352	1.47986
378.563	1.43289
378.775	2.15434
378.986	0.69075
379.197	1.21162
379.409	0.87921
379.62	1.88314
379.832	1.66736
380.043	1.13667
380.254	1.35571
380.466	0.633
380.677	3.22237
380.888	2.69688
381.1	2.98642
381.311	2.88375
381.522	1.25467
381.733	3.31112
381.945	1.23581
382.156	1.4338
382.367	0.85682
382.578	3.1493
382.789	3.04825
383.001	1.05269
383.212	2.16761
383.423	2.30418
383.634	2.081
383.845	1.62577
384.056	0.97048
384.267	1.39636
384.478	1.16057
384.69	0.50882
384.901	1.53743
385.112	1.53748
385.323	2.34452
385.534	1.57929
385.745	1.46433
385.956	1.61291
386.167	0.70005
386.378	1.52591
386.588	0.53077
386.799	0.77977
387.01	0.18075
387.221	1.86119
387.432	1.16182
387.643	2.38391
387.854	1.11024
388.065	1.07219
388.275	1.14668
388.486	1.01215
388.697	1.07998
388.908	1.03079
389.119	2.06246
389.329	2.25799
389.54	1.25557
389.751	1.44975
389.962	2.06092
390.172	1.48035
390.383	0.93887
390.594	0.89573
390.804	0.78354
391.015	0.91379
391.226	1.2461
391.436	1.57335
391.647	1.43899
391.858	1.62925
392.068	0.21397
392.279	0.43899
392.489	1.21607
392.7	1.99451
392.91	0.50773
393.121	0.71838
393.331	1.44335
393.542	1.91143
393.752	1.51042
393.963	1.44595
394.173	1.16982
394.384	1.54128
394.594	1.16354
394.804	0.50667
395.015	1.32136
395.225	1.44372
395.436	0.51842
395.646	1.49532
395.856	0.62476
396.067	0.34562
396.277	1.81311
396.487	1.42285
396.697	1.21117
396.908	1.52623
397.118	1.5705
397.328	1.3756
397.538	1.8932
397.749	0.69741
397.959	1.68478
398.169	1.72536
398.379	0.41255
398.589	1.71546
398.8	1.19795
399.01	1.04647
399.22	0.99864
399.43	2.66243
399.64	0.93508
399.85	1.65484
400.06	1.19525
400.27	0.75881
400.48	1.239
400.69	2.26048
400.9	0.80421
401.11	0.75709
401.32	1.69503
401.53	0.94922
401.74	2.24929
401.95	1.69411
402.16	0.50633
402.37	1.36595
402.58	0.89303
402.79	1.69994
403	1.90009
403.209	0.94593
403.419	1.76585
403.629	0.75606
403.839	1.65947
404.049	1.63998
404.258	0.72685
404.468	0.66117
404.678	1.44576
404.888	1.62221
405.097	0.42349
405.307	1.07338
405.517	1.53688
405.727	1.22516
405.936	0.94899
406.146	1.31793
406.356	1.9642
406.565	1.18211
406.775	0.74712
406.984	0.82657
407.194	2.09919
407.404	1.15369
407.613	1.4686
407.823	1.62137
408.032	1.76463
408.242	1.84805
408.451	0.84563
408.661	1.09168
408.87	2.26728
409.08	0.932
409.289	1.41815
409.499	1.28856
409.708	1.36193
409.918	0.06524
410.127	1.20827
410.336	2.20358
410.546	1.58733
410.755	0.9801
410.964	0.99784
411.174	0.73091
411.383	1.43636
411.592	1.53329
411.802	0.6267
412.011	1.81279
412.22	1.14676
412.429	2.23303
412.639	2.08118
412.848	1.99323
413.057	2.04004
413.266	2.02653
413.475	1.31139
413.685	1.75564
413.894	1.88408
414.103	2.07678
414.312	1.80031
414.521	1.27918
414.73	1.30962
414.939	2.61947
415.148	1.61898
415.357	1.48302
415.566	1.00005
415.776	1.19305
415.985	0.97793
416.194	1.82097
416.403	2.26469
416.611	0.56225
416.82	0.88181
417.029	1.2609
417.238	0.8655
417.447	0.63079
417.656	0.91403
417.865	0.66269
418.074	0.83511
418.283	0.9856
418.492	1.41009
418.7	1.318
418.909	1.76553
419.118	1.21068
419.327	1.28945
419.536	1.10986
419.744	0.73853
419.953	1.63984
420.162	1.65207
420.371	0.80263
420.579	0.64143
420.788	1.56863
420.997	1.42072
421.205	1.49249
421.414	1.28278
421.623	1.11535
421.831	0.96835
422.04	1.55861
422.249	0.89409
422.457	1.4782
422.666	0.89459
422.874	1.75117
423.083	1.71496
423.291	1.68475
423.5	1.30904
423.708	1.50651
423.917	1.69427
424.125	1.42982
424.334	1.09764
424.542	2.65437
424.751	2.05946
424.959	1.84019
425.167	2.21201
425.376	1.99006
425.584	1.40771
425.793	1.71144
426.001	1.04521
426.209	1.71639
426.418	0.98375
426.626	1.16406
426.834	0.98547
427.042	1.38923
427.251	1.06322
427.459	1.87286
427.667	1.46521
427.875	0.8849
428.084	1.23177
428.292	2.1819
428.5	1.67238
428.708	1.08279
428.916	0.98204
429.124	1.57543
429.333	1.26565
429.541	1.31432
429.749	1.54322
429.957	1.47349
430.165	2.90716
430.373	0.8118
430.581	1.6036
430.789	2.35993
430.997	1.26627
431.205	1.19847
431.413	1.56709
431.621	1.34208
431.829	1.85438
432.037	1.29683
432.245	1.69693
432.453	1.66026
432.661	1.28793
432.869	2.44697
433.076	0.93742
433.284	1.36468
433.492	1.67702
433.7	1.9868
433.908	1.18715
434.116	1.48819
434.323	1.51345
434.531	1.44005
434.739	1.71101
434.947	2.06371
435.154	1.82828
435.362	1.64171
435.57	1.45057
435.778	1.32743
435.985	1.77313
436.193	1.42389
436.401	2.13449
436.608	1.61908
436.816	1.34587
437.023	2.42128
437.231	2.34779
437.439	1.8065
437.646	1.85866
437.854	1.84861
438.061	1.95541
438.269	1.54056
438.476	1.9266
438.684	1.59921
438.891	1.36042
439.099	1.09919
439.306	0.89021
439.514	1.05186
439.721	1.68868
439.929	1.2826
440.136	1.82077
440.343	1.72192
440.551	1.51919
440.758	2.94168
440.965	2.06427
441.173	1.74189
441.38	1.40868
441.587	1.82654
441.795	1.44349
442.002	1.74941
442.209	1.73604
442.416	1.97653
442.624	1.944
442.831	1.82564
443.038	1.40094
443.245	1.19965
443.452	1.42257
443.66	2.01292
443.867	1.30843
444.074	1.4255
444.281	1.31708
444.488	1.52311
444.695	1.55988
444.902	1.40445
445.109	1.98219
445.316	1.55079
445.523	1.42871
445.73	1.29874
445.937	1.8593
446.144	2.07456
446.351	2.05122
446.558	1.53638
446.765	2.3872
446.972	2.4921
447.179	1.83889
447.386	2.7495
447.593	1.69504
447.8	2.49468
448.007	1.67621
448.214	1.7804
448.42	1.43851
448.627	2.21932
448.834	1.63334
449.041	1.68112
449.248	1.58245
449.454	2.17877
449.661	2.72052
449.868	1.69137
450.075	1.55063
450.281	0.8172
450.488	1.26343
450.695	1.51104
450.901	1.48533
451.108	1.7295
451.315	2.27574
451.521	1.73093
451.728	2.3454
451.935	1.50204
452.141	1.75106
452.348	1.87599
452.554	1.73616
452.761	1.55567
452.967	2.57617
453.174	1.94137
453.38	1.97279
453.587	1.27557
453.793	1.88255
454	2.54735
454.206	2.98903
454.413	2.49743
454.619	2.05521
454.825	1.52715
455.032	2.23907
455.238	2.40273
455.445	1.36311
455.651	1.977
455.857	1.07825
456.064	1.66868
456.27	1.71271
456.476	1.85156
456.682	1.2434
456.889	2.0913
457.095	2.16257
457.301	3.31507
457.507	1.91731
457.714	1.97469
457.92	1.88294
458.126	1.53893
458.332	1.72738
458.538	1.5613
458.744	1.61196
458.951	1.599
459.157	2.98746
459.363	1.95119
459.569	1.8269
459.775	2.60281
459.981	1.7136
460.187	2.04933
460.393	2.47117
460.599	2.97567
460.805	2.23925
461.011	2.02165
461.217	2.49803
461.423	2.57625
461.629	1.87019
461.835	2.39982
462.041	1.93768
462.247	2.85869
462.453	1.93959
462.658	2.12083
462.864	2.41578
463.07	2.30522
463.276	2.25465
463.482	2.26039
463.688	2.71104
463.893	2.02157
464.099	1.99367
464.305	2.9228
464.511	1.87983
464.716	2.14498
464.922	2.46587
465.128	1.80753
465.333	3.01895
465.539	2.48118
465.745	2.02117
465.95	2.37827
466.156	3.63689
466.362	2.82398
466.567	2.14147
466.773	1.95718
466.978	3.01158
467.184	1.80893
467.389	1.20139
467.595	2.46616
467.8	1.82896
468.006	2.95651
468.211	2.8041
468.417	1.70218
468.622	2.43911
468.828	2.69827
469.033	2.4399
469.239	3.69423
469.444	2.05005
469.649	2.84986
469.855	2.1872
470.06	2.27738
470.266	1.82631
470.471	2.61947
470.676	2.51725
470.881	1.51458
471.087	2.87627
471.292	3.91015
471.497	1.69879
471.703	2.16955
471.908	2.10275
472.113	2.39931
472.318	2.80245
472.523	1.87354
472.729	2.50729
472.934	2.7919
473.139	2.12891
473.344	2.58645
473.549	2.96104
473.754	2.1353
473.959	3.77479
474.164	1.96005
474.369	2.30283
474.575	2.87705
474.78	2.4468
474.985	2.12481
475.19	1.49794
475.395	1.9636
475.6	2.40232
475.804	3.13394
476.009	2.26852
476.214	2.46558
476.419	2.20148
476.624	1.53821
476.829	1.86723
477.034	2.68372
477.239	1.91365
477.444	2.61838
477.648	2.56465
477.853	2.65388
478.058	2.17772
478.263	1.93213
478.468	1.81262
478.672	1.85897
478.877	2.94917
479.082	3.11868
479.287	2.56469
479.491	2.3549
479.696	1.8273
479.901	2.69001
480.105	2.69087
480.31	2.08564
480.515	2.15472
480.719	3.35186
480.924	2.08893
481.128	1.85509
481.333	2.36576
481.538	2.34891
481.742	2.10714
481.947	2.63124
482.151	2.92466
482.356	2.77433
482.56	3.48822
482.765	3.60045
482.969	4.45998
483.174	5.0368
483.378	6.07837
483.582	6.01997
483.787	6.97583
483.991	6.8941
484.196	7.30795
484.4	7.19011
484.604	7.94018
484.809	6.69984
485.013	6.67091
485.217	5.98992
485.422	5.37582
485.626	4.8852
485.83	4.5672
486.034	4.27399
486.239	4.39402
486.443	4.37331
486.647	4.18983
486.851	4.77008
487.055	5.33087
487.26	4.76832
487.464	5.15832
487.668	4.82545
487.872	4.96918
488.076	5.38981
488.28	5.12946
488.484	4.73313
488.688	4.90487
488.892	4.84165
489.096	4.6502
489.3	4.10012
489.504	3.90906
489.708	3.84852
489.912	3.80561
490.116	3.69506
490.32	3.06931
490.524	3.61631
490.728	3.81147
490.932	3.74143
491.136	3.75217
491.34	4.60121
491.544	4.71221
491.748	4.49082
491.951	4.65173
492.155	4.34655
492.359	4.46316
492.563	3.87934
492.767	3.746
492.97	3.51645
493.174	3.12184
493.378	2.99124
493.582	2.41118
493.785	2.58402
493.989	2.67413
494.193	2.74135
494.396	2.45673
494.6	3.075
494.804	2.5902
495.007	2.29954
495.211	2.3461
495.414	2.48818
495.618	2.62539
495.822	3.17562
496.025	2.60788
496.229	2.8991
496.432	2.22301
496.636	2.58423
496.839	2.4459
497.043	3.31519
497.246	2.70842
497.45	2.36512
497.653	2.52302
497.856	2.64803
498.06	2.06867
498.263	2.53815
498.467	2.33159
498.67	2.97821
498.873	2.78785
499.077	2.52068
499.28	2.48871
499.483	2.77463
499.686	2.95067
499.89	2.87441
500.093	3.10965
500.296	2.38938
500.499	3.42313
500.703	2.79111
500.906	2.85528
501.109	3.61493
501.312	2.75112
501.515	2.59427
501.719	2.84847
501.922	3.50332
502.125	2.84392
502.328	2.64111
502.531	2.22612
502.734	2.69272
502.937	1.83011
503.14	2.7955
503.343	2.21518
503.546	2.49639
503.749	2.27975
503.952	3.03074
504.155	2.2959
504.358	2.9104
504.561	2.63465
504.764	2.16865
504.967	2.72432
505.17	2.76003
505.373	3.48092
505.576	2.80755
505.778	3.08945
505.981	2.40491
506.184	3.32555
506.387	2.02535
506.59	3.78544
506.793	3.28113
506.995	2.99257
507.198	1.92702
507.401	2.91864
507.604	2.97308
507.806	2.3576
508.009	2.39502
508.212	3.11164
508.414	2.35922
508.617	2.34793
508.82	2.56313
509.022	3.33117
509.225	2.73463
509.427	2.01878
509.63	3.33555
509.833	2.82789
510.035	2.59535
510.238	2.07107
510.44	3.38026
510.643	1.89963
510.845	3.76333
511.048	2.87552
511.25	2.48551
511.453	2.64142
511.655	2.90147
511.858	2.5816
512.06	3.06674
512.262	2.82388
512.465	3.17484
512.667	2.42862
512.869	2.32941
513.072	2.94733
513.274	3.12099
513.476	2.94517
513.679	3.23111
513.881	2.23728
514.083	3.61742
514.286	2.48802
514.488	2.4909
514.69	2.44276
514.892	2.27459
515.094	3.08884
515.297	2.58318
515.499	2.95641
515.701	2.43211
515.903	3.61964
516.105	3.6854
516.307	3.221
516.509	1.9742
516.711	2.23086
516.913	2.90519
517.116	2.73185
517.318	2.55048
517.52	3.30308
517.722	3.05508
517.924	2.14996
518.126	2.98764
518.328	2.41607
518.529	3.06754
518.731	3.91172
518.933	2.53625
519.135	2.82909
519.337	3.5132
519.539	3.01549
519.741	2.02742
519.943	2.65445
520.145	2.70334
520.346	3.05223
520.548	2.65865
520.75	2.93024
520.952	2.714
521.153	2.96429
521.355	3.11694
521.557	2.4687
521.759	3.05222
521.96	2.88718
522.162	2.42363
522.364	3.37388
522.565	2.62183
522.767	3.23136
522.969	3.44796
523.17	3.20467
523.372	3.14208
523.573	2.54611
523.775	2.74228
523.977	2.49117
524.178	3.81208
524.38	2.56439
524.581	3.2137
524.783	2.72275
524.984	3.16435
525.186	2.83032
525.387	3.2194
525.589	3.04287
525.79	2.9389
525.991	2.79178
526.193	3.39787
526.394	2.63177
526.596	3.50662
526.797	3.52542
526.998	3.19838
527.2	3.03628
527.401	4.23016
527.602	4.33078
527.803	5.34704
528.005	5.45703
528.206	5.96165
528.407	6.44999
528.608	6.23756
528.81	6.52419
529.011	6.15653
529.212	7.07761
529.413	6.47536
529.614	6.10544
529.815	6.03267
530.017	5.56668
530.218	4.91627
530.419	4.25525
530.62	4.25136
530.821	4.08048
531.022	3.0722
531.223	3.79207
531.424	3.77141
531.625	3.68292
531.826	3.45846
532.027	3.57838
532.228	4.30576
532.429	3.95664
532.63	3.96593
532.831	4.32643
533.032	4.39595
533.233	4.86561
533.433	4.70822
533.634	4.93272
533.835	4.47792
534.036	4.0755
534.237	4.12389
534.438	3.84277
534.638	3.29247
534.839	3.32472
535.04	3.49261
535.241	2.99819
535.441	3.82561
535.642	3.46593
535.843	2.7808
536.043	2.83283
536.244	3.0852
536.445	3.1302
536.645	3.8206
536.846	3.43079
537.047	4.10436
537.247	3.07269
537.448	3.05233
537.648	3.13781
537.849	3.11719
538.049	2.99357
538.25	3.37684
538.451	3.2665
538.651	2.78334
538.851	3.42992
539.052	3.74134
539.252	3.49095
539.453	3.21777
539.653	3.18376
539.854	3.1174
540.054	3.00709
540.254	3.9789
540.455	4.22708
540.655	3.83357
540.855	4.50351
541.056	5.059
541.256	4.86177
541.456	5.54329
541.657	5.05348
541.857	5.95692
542.057	4.83656
542.257	4.72683
542.458	5.17607
542.658	5.37316
542.858	4.13881
543.058	4.60644
543.258	4.22205
543.458	3.38308
543.659	3.1329
543.859	3.83098
544.059	3.62523
544.259	3.27189
544.459	3.76996
544.659	3.04147
544.859	3.48035
545.059	3.14927
545.259	3.61468
545.459	3.40596
545.659	3.68841
545.859	3.3443
546.059	3.46421
546.259	2.92037
546.459	2.6069
546.659	2.81724
546.859	3.57711
547.059	3.3146
547.258	3.43789
547.458	3.48269
547.658	2.73048
547.858	2.7672
548.058	3.34968
548.258	3.18345
548.457	2.83244
548.657	4.64568
548.857	3.25572
549.057	3.96007
549.256	3.6875
549.456	3.18117
549.656	2.43189
549.855	4.66586
550.055	3.1985
550.255	4.40215
550.454	3.72121
550.654	4.04215
550.853	4.38554
551.053	3.94331
551.253	3.56962
551.452	3.85504
551.652	2.70557
551.851	2.48438
552.051	3.06921
552.25	3.14196
552.45	2.95175
552.649	3.15228
552.849	2.82781
553.048	3.44713
553.248	3.70085
553.447	2.86262
553.646	3.79704
553.846	4.98249
554.045	4.1885
554.244	2.78514
554.444	4.26172
554.643	3.00783
554.842	4.36718
555.042	4.63947
555.241	3.18242
555.44	3.03114
555.64	3.64645
555.839	4.42485
556.038	3.87532
556.237	3.21603
556.436	3.56378
556.636	3.76441
556.835	3.06518
557.034	4.42477
557.233	3.46061
557.432	2.7828
557.631	4.06132
557.83	3.47537
558.029	3.16668
558.228	3.19118
558.427	2.93993
558.626	3.80642
558.825	3.00226
559.024	3.50396
559.223	4.88654
559.422	3.52179
559.621	3.90035
559.82	2.13831
560.019	3.55343
560.218	3.24636
560.417	1.99051
560.616	3.22433
560.815	5.58726
561.014	2.60283
561.212	4.42804
561.411	3.60242
561.61	2.6695
561.809	3.37898
562.008	4.74126
562.206	3.38683
562.405	3.7406
562.604	3.50078
562.803	3.67503
563.001	3.68813
563.2	2.66347
563.399	3.9111
563.597	2.71126
563.796	3.74157
563.995	2.64112
564.193	3.95446
564.392	3.24697
564.59	5.00278
564.789	2.32998
564.988	3.35854
565.186	3.55799
565.385	3.31008
565.583	3.16716
565.782	3.41914
565.98	3.2398
566.179	3.30314
566.377	2.74245
566.575	2.80837
566.774	4.20303
566.972	4.02887
567.171	4.58011
567.369	4.30259
567.567	3.55282
567.766	3.71473
567.964	2.20117
568.162	3.96971
568.361	4.39587
568.559	3.34397
568.757	3.69719
568.956	3.64472
569.154	3.4785
569.352	4.12554
569.55	3.41045
569.748	3.5224
569.947	2.99877
570.145	2.91666
570.343	2.89683
570.541	4.50704
570.739	2.52528
570.937	3.46586
571.135	3.73886
571.333	4.99995
571.532	4.74165
571.73	3.63452
571.928	4.09034
572.126	3.92604
572.324	3.11627
572.522	4.21559
572.72	5.00464
572.918	3.50502
573.116	3.67289
573.313	3.35246
573.511	3.35391
573.709	3.26992
573.907	3.96408
574.105	3.25757
574.303	2.54954
574.501	2.54706
574.699	3.67531
574.896	3.66211
575.094	3.93673
575.292	2.72162
575.49	3.98497
575.688	3.44381
575.885	4.39385
576.083	5.04678
576.281	3.80049
576.478	3.15508
576.676	3.96305
576.874	2.80262
577.071	3.59247
577.269	5.13451
577.467	3.46556
577.664	3.65438
577.862	4.26219
578.059	3.18514
578.257	4.21197
578.455	3.68839
578.652	3.74719
578.85	2.40534
579.047	3.91292
579.245	3.55349
579.442	3.88362
579.64	3.66815
579.837	2.4867
580.034	5.88967
580.232	3.56589
580.429	3.10368
580.627	4.22337
580.824	4.91373
581.021	4.29893
581.219	3.43293
581.416	3.35462
581.613	4.89041
581.811	4.66963
582.008	3.29874
582.205	4.52604
582.402	4.27092
582.6	5.77234
582.797	4.14325
582.994	4.42345
583.191	4.74929
583.388	3.93863
583.586	4.50026
583.783	4.93001
583.98	3.18787
584.177	4.06015
584.374	1.88462
584.571	3.7485
584.768	4.08902
584.965	3.58433
585.162	4.61048
585.359	5.26332
585.556	4.15756
585.753	4.47082
585.95	3.03226
586.147	3.45492
586.344	4.42058
586.541	3.97595
586.738	3.0283
586.935	3.9209
587.132	3.57319
587.329	5.06152
587.526	4.02127
587.722	8.1251
587.919	2.92441
588.116	4.32782
588.313	5.18306
588.51	5.65496
588.706	3.86284
588.903	4.47212
589.1	4.85121
589.297	6.39317
589.493	3.81831
589.69	4.48967
589.887	3.56936
590.083	2.98428
590.28	3.51538
590.477	4.9754
590.673	4.36244
590.87	5.13376
591.067	3.56708
591.263	4.42229
591.46	4.38783
591.656	3.96429
591.853	5.57869
592.049	3.6584
592.246	3.65054
592.442	5.07909
592.639	5.37265
592.835	3.21807
593.032	4.36993
593.228	2.90188
593.425	3.10094
593.621	2.94772
593.817	4.15915
594.014	3.40977
594.21	4.33485
594.406	5.03818
594.603	4.33949
594.799	3.53763
594.995	2.25838
595.192	4.89579
595.388	3.68006
595.584	3.57306
595.78	2.95415
595.977	6.29526
596.173	5.33516
596.369	3.66774
596.565	2.99107
596.761	2.83981
596.957	4.74169
597.154	3.3625
597.35	3.49
597.546	3.37049
597.742	4.20432
597.938	4.08274
598.134	3.24243
598.33	4.07585
598.526	4.96957
598.722	4.4196
598.918	5.68049
599.114	4.84175
599.31	3.18853
599.506	4.40084
599.702	3.65776
599.898	4.50372
600.094	5.14137
600.29	5.07867
600.485	4.93942
600.681	3.71264
600.877	5.8206
601.073	4.4899
601.269	6.31258
601.465	5.62944
601.66	3.46122
601.856	2.78052
602.052	6.33825
602.248	3.88389
602.443	2.48439
602.639	3.02722
602.835	3.38188
603.03	3.39227
603.226	4.7799
603.422	3.31344
603.617	3.84632
603.813	3.64086
604.009	3.35278
604.204	4.81279
604.4	2.7301
604.595	4.70359
604.791	3.20672
604.986	4.08938
605.182	3.23155
605.377	3.58949
605.573	3.69567
605.768	3.90251
605.964	4.39589
606.159	4.72095
606.355	4.8995
606.55	3.83189
606.746	5.01579
606.941	4.26707
607.136	5.89139
607.332	6.91605
607.527	3.21049
607.722	4.63872
607.918	4.06642
608.113	3.43527
608.308	4.98553
608.503	4.74737
608.699	4.59034
608.894	4.64719
609.089	3.35462
609.284	4.26801
609.479	3.6471
609.675	4.62038
609.87	3.99818
610.065	4.74724
610.26	4.90579
610.455	4.91101
610.65	4.25168
610.845	4.70286
611.04	5.07143
611.235	4.14323
611.43	4.43583
611.625	3.56198
611.82	5.84456
612.015	3.96489
612.21	6.24362
612.405	3.32673
612.6	6.32647
612.795	6.05331
612.99	5.52567
613.185	3.70659
613.38	3.98947
613.575	4.99186
613.77	7.69668
613.965	3.27357
614.159	4.09906
614.354	5.8921
614.549	5.95337
614.744	5.27086
614.938	3.73293
615.133	3.53558
615.328	6.18142
615.523	6.11919
615.717	7.77027
615.912	4.40778
616.107	4.81547
616.301	4.404
616.496	4.03934
616.691	6.64009
616.885	5.64979
617.08	7.60262
617.274	6.03665
617.469	6.91848
617.664	5.60327
617.858	4.60233
618.053	5.19839
618.247	4.51898
618.442	2.52146
618.636	6.41787
618.831	4.33351
619.025	4.3141
619.219	8.08009
619.414	1.69398
619.608	4.62645
619.803	4.04124
619.997	7.29233
620.191	6.21677
620.386	5.43295
620.58	5.09611
620.774	3.05535
620.969	3.15222
621.163	5.07395
621.357	3.7012
621.551	4.86672
621.746	5.07253
621.94	4.7779
622.134	8.81062
622.328	7.5588
622.522	3.54615
622.716	6.2655
622.911	6.06027
623.105	5.75736
623.299	5.47308
623.493	8.8322
623.687	4.2432
623.881	4.47255
624.075	5.955
624.269	6.2495
624.463	2.88954
624.657	3.34189
624.851	5.82407
625.045	5.88744
625.239	5.78295
625.433	4.00681
625.627	7.0682
625.821	4.31073
626.015	3.98942
626.209	4.87285
626.403	2.91757
626.596	5.22375
626.79	5.64752
626.984	3.50832
627.178	5.3896
627.372	5.23612
627.565	5.54311
627.759	3.53663
627.953	3.70629
628.147	5.30217
628.34	5.75225
628.534	7.2847
628.728	4.62226
628.921	6.27309
629.115	5.86527
629.309	6.16269
629.502	6.38295
629.696	5.5734
629.89	5.02508
630.083	5.32686
630.277	5.4862
630.47	7.40135
630.664	4.76178
630.857	3.76289
631.051	6.52828
631.244	6.78825
631.438	6.60844
631.631	4.55614
631.825	7.02825
632.018	6.07691
632.212	7.4692
632.405	6.80674
632.598	4.5478
632.792	5.54186
632.985	2.70932
633.178	4.7537
633.372	5.40854
633.565	5.12789
633.758	6.84541
633.952	4.30467
634.145	4.33084
634.338	5.21653
634.531	4.79203
634.724	4.15613
634.918	5.43581
635.111	4.88264
635.304	4.9083
635.497	8.33487
635.69	5.97297
635.883	6.79577
636.077	4.37987
636.27	5.96189
636.463	5.94232
636.656	5.93137
636.849	5.09962
637.042	6.19292
637.235	8.35562
637.428	6.55407
637.621	6.17628
637.814	7.65066
638.007	7.76868
638.2	7.91847
638.393	8.34918
638.586	4.074
638.778	5.17671
638.971	5.73881
639.164	7.82187
639.357	6.5407
639.55	7.85662
639.743	6.8245
639.935	6.83296
640.128	9.23927
640.321	7.30164
640.514	6.3627
640.707	9.63764
640.899	7.03755
641.092	3.84063
641.285	21.9807
641.477	3.47255
641.67	9.67305
641.863	8.21885
642.055	6.48057
642.248	6.66278
642.441	5.72105
642.633	7.0812
642.826	8.49719
643.018	8.3068
643.211	9.3043
643.403	9.5494
643.596	9.89036
643.788	9.5337
643.981	5.77691
644.173	7.59033
644.366	5.81427
644.558	3.74806
644.751	7.84084
644.943	4.95895
645.135	9.30623
645.328	9.10293
645.52	7.50224
645.712	8.46069
645.905	11.64365
646.097	5.06132
646.289	7.33063
646.482	10.07289
646.674	5.62464
646.866	8.54695
647.058	7.63048
647.251	5.4315
647.443	6.13677
647.635	6.27132
647.827	5.426
648.019	4.98573
648.211	6.66613
648.404	6.91642
648.596	9.39205
648.788	7.43254
648.98	7.19909
649.172	7.67256
649.364	7.44544
649.556	4.5133
649.748	10.95538
649.94	5.68268
650.132	8.09812
650.324	6.08648
650.516	5.69021
650.708	8.71692
650.9	4.79482
651.092	6.13894
651.284	4.74254
651.476	5.19127
651.667	8.14286
651.859	9.43984
652.051	6.59973
652.243	7.19072
652.435	6.27798
652.627	7.53898
652.818	7.73053
653.01	4.75936
653.202	5.8516
653.394	6.52627
653.585	7.76897
653.777	14.4517
653.969	9.92155
654.16	9.34206
654.352	5.38495
654.544	7.36841
654.735	9.45582
654.927	7.32783
655.118	9.71651
655.31	8.66839
655.502	8.86235
655.693	6.49563
655.885	8.03563
656.076	9.75477
656.268	7.94721
656.459	10.08189
656.651	9.73612
656.842	6.41508
657.034	6.11513
657.225	8.68201
657.416	9.84161
657.608	9.53535
657.799	7.47252
657.99	9.44704
658.182	5.95142
658.373	5.87202
658.564	9.1853
658.756	7.4809
658.947	6.86351
659.138	5.84117
659.33	6.1898
659.521	5.90792
659.712	6.78206
659.903	6.84101
660.094	6.18478
660.286	4.80964
660.477	10.08693
660.668	8.15026
660.859	7.20727
661.05	5.16827
661.241	7.93121
661.432	8.02882
661.623	6.9873
661.814	6.83011
662.006	5.09034
662.197	8.15498
662.388	9.65145
662.579	8.41004
662.77	10.03279
662.96	12.75702
663.151	9.64158
663.342	4.9716
663.533	9.06969
663.724	7.7637
663.915	11.41569
664.106	8.03994
664.297	11.71532
664.488	8.95856
664.678	7.13677
664.869	9.55444
665.06	9.68536
665.251	8.56853
665.442	9.30058
665.632	6.42973
665.823	12.39671
666.014	3.30576
666.204	9.40171
666.395	10.83124
666.586	13.09456
666.776	9.76622
666.967	12.54893
667.158	8.33458
667.348	11.40986
667.539	6.401
667.729	10.49734
667.92	7.06208
668.111	10.52159
668.301	9.72966
668.492	7.89535
668.682	8.43882
668.873	8.37868
669.063	6.5098
669.253	8.67523
669.444	11.42958
669.634	8.16678
669.825	11.9116
670.015	10.93888
670.206	7.56189
670.396	12.8133
670.586	8.15043
670.777	9.81159
670.967	4.91517
671.157	8.29753
671.347	7.5947
671.538	12.10341
671.728	10.16801
671.918	12.8851
672.108	10.75897
672.299	8.67225
672.489	9.37081
672.679	7.52334
672.869	10.13631
673.059	13.85312
673.249	10.29196
673.44	6.65465
673.63	8.68862
673.82	10.87956
674.01	6.88743
674.2	10.25877
674.39	15.31007
674.58	10.22101
674.77	9.43638
674.96	9.19518
675.15	17.96862
675.34	11.79977
675.53	9.35082
675.72	8.29025
675.91	5.88523
676.099	13.21184
676.289	14.27525
676.479	11.95241
676.669	8.19154
676.859	10.66404
677.049	7.86224
677.238	9.72621
677.428	13.35011
677.618	10.72173
677.808	13.67695
677.997	10.70735
678.187	7.53354
678.377	9.4905
678.567	8.15473
678.756	8.75256
678.946	9.54078
679.136	6.59124
679.325	7.99686
679.515	7.67192
679.704	6.63947
679.894	11.32625
680.084	10.10046
680.273	11.86989
680.463	7.20685
680.652	7.42321
680.842	9.23788
681.031	11.16429
681.221	7.36266
681.41	10.29961
681.6	9.12538
681.789	10.88758
681.978	12.06335
682.168	10.37294
682.357	9.89532
682.547	10.588
682.736	10.34443
682.925	12.78211
683.115	12.65692
683.304	11.40632
683.493	10.43799
683.682	11.29777
683.872	11.01513
684.061	12.84859
684.25	11.70191
684.439	16.11415
684.629	11.85672
684.818	18.62705
685.007	10.6862
685.196	9.6214
685.385	15.34486
685.574	11.74109
685.763	11.2179
685.952	11.26939
686.142	8.12859
686.331	14.25143
686.52	7.40672
686.709	15.94307
686.898	15.25116
687.087	12.71048
687.276	15.36842
687.465	14.06152
687.654	10.31767
687.842	14.64935
688.031	8.04239
688.22	14.55455
688.409	11.94315
688.598	11.64452
688.787	17.18512
688.976	11.60331
689.165	16.67579
689.353	10.38755
689.542	12.87894
689.731	14.15017
689.92	17.46455
690.108	13.54937
690.297	10.97667
690.486	12.26654
690.675	13.08654
690.863	16.6801
691.052	15.80658
691.241	12.60357
691.429	12.80308
691.618	15.65797
691.806	8.88819
691.995	11.41895
692.184	12.24886
692.372	11.23505
692.561	12.43331
692.749	13.12787
692.938	21.39845
693.126	13.72091
693.315	11.94935
693.503	13.64347
693.692	15.33471
693.88	14.63084
694.068	17.78474
694.257	13.19102
694.445	13.96312
694.634	7.52038
694.822	14.85135
695.01	16.94153
695.199	19.29251
695.387	17.201
695.575	16.13912
695.763	12.62795
695.952	12.14911
696.14	8.8152
696.328	10.92697
696.516	13.26358
696.705	13.76086
696.893	13.14182
697.081	8.16904
697.269	15.06315
697.457	9.55522
697.645	8.70054
697.833	14.10816
698.021	9.84087
698.21	10.81286
698.398	11.06373
698.586	8.8272
698.774	8.3832
698.962	11.19512
699.15	8.68555
699.338	7.79636
699.526	12.60502
699.714	9.98529
699.901	9.88383
700.089	13.42761
700.277	9.77361
700.465	11.41145
700.653	13.75296
700.841	13.08498
701.029	10.41102
701.217	16.39852
701.404	12.63772
701.592	16.73753
701.78	19.70666
701.968	12.38083
702.155	12.86972
702.343	9.65529
702.531	17.31168
702.718	14.80006
702.906	11.99411
703.094	11.95709
703.281	17.15734
703.469	12.61367
703.657	17.21423
703.844	24.20976
704.032	19.87004
704.219	12.88419
704.407	15.78044
704.595	18.63047
704.782	15.65104
704.97	13.82006
705.157	13.67322
705.345	20.86208
705.532	26.61714
705.719	17.56321
705.907	20.39402
706.094	17.5076
706.282	23.33043
706.469	16.95281
706.656	17.95066
706.844	16.77193
707.031	21.75364
707.218	19.86343
707.406	23.7915
707.593	20.84831
707.78	21.08765
707.968	19.65007
708.155	16.82875
708.342	21.61492
708.529	21.62715
708.716	20.45923
708.904	24.44282
709.091	21.22193
709.278	16.11107
709.465	25.7802
709.652	24.51203
709.839	24.15285
710.026	19.31017
710.213	13.62149
710.4	19.35378
710.587	20.90948
710.774	22.72637
710.961	22.78062
711.148	19.84606
711.335	22.35033
711.522	18.35761
711.709	20.92248
711.896	25.94327
712.083	22.8987
712.27	16.14845
712.457	20.04924
712.644	14.63557
712.831	26.57233
713.017	20.18802
713.204	22.01998
713.391	16.79979
713.578	22.06074
713.765	24.42929
713.951	20.07932
714.138	29.848
714.325	19.17315
714.512	17.79655
714.698	14.87291
714.885	22.97104
715.072	17.83931
715.258	17.73566
715.445	15.45465
715.631	21.72031
715.818	8.51687
716.005	15.29081
716.191	19.81861
716.378	15.38129
716.564	19.71986
716.751	14.20016
716.937	15.12868
717.124	20.6462
717.31	13.67125
717.497	24.91077
717.683	14.37766
717.869	24.9111
718.056	15.31836
718.242	19.02676
718.429	17.06078
718.615	13.11141
718.801	16.89625
718.988	21.93983
719.174	19.8661
719.36	15.92941
719.547	23.30984
719.733	18.66659
719.919	18.49952
720.105	19.83005
720.291	18.08211
720.478	19.1767
720.664	16.96178
720.85	16.21794
721.036	29.29739
721.222	24.57664
721.408	17.37384
721.595	24.92822
721.781	24.90352
721.967	23.42268
722.153	24.91236
722.339	21.91043
722.525	20.39767
722.711	13.8705
722.897	12.9209
723.083	17.56649
723.269	23.61172
723.455	31.02678
723.641	36.57703
723.827	19.80543
724.012	21.01371
724.198	19.0341
724.384	24.99479
724.57	19.93974
724.756	12.81557
724.942	11.15725
725.127	23.59779
725.313	24.5726
725.499	24.60692
725.685	28.43532
725.87	20.95099
726.056	15.21164
726.242	25.12839
726.428	12.70618
726.613	23.69891
726.799	17.44403
726.985	15.05143
727.17	12.57869
727.356	29.12219
727.541	15.50132
727.727	18.96008
727.913	22.74028
728.098	17.67209
728.284	23.11965
728.469	14.18895
728.655	15.80893
728.84	24.52178
729.026	23.04627
729.211	23.22302
729.397	21.42762
729.582	23.11678
729.767	18.55698
729.953	21.18988
730.138	25.46457
730.323	9.5812
730.509	14.68905
730.694	27.64041
730.879	22.43323
731.065	21.40498
731.25	30.68143
731.435	22.99756
731.621	14.12865
731.806	18.08335
731.991	20.77613
732.176	13.83901
732.361	26.76335
732.547	21.29975
732.732	13.07323
732.917	30.88022
733.102	15.42156
733.287	17.27627
733.472	19.42708
733.657	19.05356
733.842	13.58009
734.027	17.97955
734.212	19.26434
734.397	16.588
734.582	19.81504
734.767	24.82235
734.952	26.82795
735.137	9.82218
735.322	27.00631
735.507	22.2519
735.692	20.81793
735.877	30.75142
736.062	29.96753
736.247	22.40801
736.431	20.80515
736.616	25.85523
736.801	22.59539
736.986	21.12633
737.171	15.89529
737.355	15.16016
737.54	27.54001
737.725	20.76188
737.909	35.28921
738.094	18.37256
738.279	25.14282
738.463	19.77254
738.648	24.09468
738.833	22.26981
739.017	32.57861
739.202	20.5854
739.386	19.57973
739.571	16.89112
739.756	26.16742
739.94	21.58389
740.125	24.0493
740.309	18.16735
740.494	25.5824
740.678	22.37578
740.863	24.05525
741.047	21.84109
741.231	29.91354
741.416	18.13805
741.6	29.62803
741.785	17.71377
741.969	26.54171
742.153	29.6993
742.338	11.47721
742.522	21.66836
742.706	26.37227
742.89	15.37386
743.075	21.91623
743.259	28.53966
743.443	28.6132
743.627	29.86881
743.812	35.61937
743.996	13.88587
744.18	21.26107
744.364	20.49083
744.548	36.27534
744.732	21.08897
744.916	27.15624
745.1	25.68373
745.285	20.25549
745.469	25.85882
745.653	31.60293
745.837	16.78723
746.021	36.12931
746.205	29.41116
746.389	23.44752
746.573	21.49054
746.757	31.92828
746.94	19.64236
747.124	28.86567
747.308	16.0462
747.492	29.14684
747.676	17.49373
747.86	38.24262
748.044	21.15198
748.227	15.12264
748.411	45.41591
748.595	24.54804
748.779	18.86677
748.963	25.86789
749.146	24.13172
749.33	19.12041
749.514	17.75492
749.697	30.75834
749.881	17.83657
750.065	17.33999
750.248	24.18383
750.432	37.96475
750.616	23.40143
750.799	17.5117
750.983	38.84886
751.166	37.84554
751.35	15.35818
751.533	29.89864
751.717	33.49152
751.9	32.09146
752.084	22.25499
752.267	18.40846
752.451	18.89857
752.634	23.5856
752.818	27.61089
753.001	29.04133
753.184	31.63399
753.368	25.76359
753.551	5.28596
753.734	19.50126
753.918	39.41693
754.101	20.29564
754.284	28.71354
754.467	21.36338
754.651	19.54826
754.834	19.52612
755.017	31.5922
755.2	31.64286
755.384	17.35012
755.567	28.80465
755.75	28.75887
755.933	22.78578
756.116	29.79151
756.299	20.69768
756.482	19.30661
756.665	27.7982
756.848	23.89378
757.032	27.14639
757.215	16.35152
757.398	18.84171
757.581	18.76805
757.764	41.50273
757.947	24.9121
758.129	30.18505
758.312	9.16956
758.495	22.50591
758.678	23.32514
758.861	22.65338
759.044	36.94244
759.227	17.62246
759.41	18.74512
759.592	30.07339
759.775	22.65506
759.958	29.67767
760.141	17.24188
760.324	39.46528
760.506	34.06386
760.689	28.84041
760.872	39.43974
761.054	26.65907
761.237	23.76056
761.42	25.88932
761.602	29.02896
761.785	27.64202
761.968	32.35307
762.15	36.27556
762.333	23.53292
762.515	28.16162
762.698	21.74391
762.88	30.49164
763.063	27.246
763.245	32.14405
763.428	19.21641
763.61	21.54507
763.793	17.49937
763.975	26.799
764.158	22.84296
764.34	20.5321
764.522	18.74352
764.705	22.78252
764.887	34.21462
765.069	16.06827
765.252	28.43123
765.434	30.32497
765.616	25.16572
765.799	20.10645
765.981	29.34916
766.163	19.79868
766.345	33.88252
766.528	21.60557
766.71	12.46952
766.892	27.10371
767.074	34.56956
767.256	23.01764
767.438	38.09182
767.62	26.85132
767.802	41.91098
767.985	30.41228
768.167	38.20505
768.349	21.71657
768.531	29.32808
768.713	26.91518
768.895	31.8069
769.077	27.93476
769.259	45.99303
769.441	61.28965
769.623	32.51581
769.804	38.14516
769.986	34.86732
770.168	43.54661
770.35	54.12785
770.532	38.2573
770.714	42.97785
770.896	43.41576
771.077	18.25206
771.259	45.01114
771.441	37.23677
771.623	48.74505
771.804	59.05087
771.986	21.31986
772.168	31.19185
772.35	46.90743
772.531	58.92019
772.713	38.50934
772.894	50.21014
773.076	35.8838
773.258	31.57893
773.439	51.364
773.621	57.36997
773.802	25.96631
773.984	30.66473
774.166	40.01328
774.347	54.63414
774.529	48.6651
774.71	16.23967
774.891	35.40154
775.073	33.1245
775.254	51.21776
775.436	32.18243
775.617	62.14861
775.799	33.3285
775.98	51.85174
776.161	57.01885
776.343	58.57682
776.524	36.63799
776.705	36.23935
776.886	18.5473
777.068	40.32505
777.249	89.22564
777.43	59.53684
777.611	25.04247
777.793	33.8554
777.974	59.74146
778.155	30.82145
778.336	28.00066
778.517	68.9322
778.698	30.08707
778.879	18.59796
779.061	12.76946
779.242	44.30356
779.423	43.24802
779.604	31.86643
779.785	34.19664
779.966	41.16192
780.147	51.25784
780.328	51.6387
780.509	70.93142
780.69	51.59616
780.871	30.97697
781.051	24.72518
781.232	39.80074
781.413	39.64632
781.594	34.98329
781.775	32.67072
781.956	30.35666
782.137	17.42898
782.317	33.05455
782.498	39.59023
782.679	41.15152
782.86	41.19863
783.04	29.70477
783.221	41.28759
783.402	61.82233
783.583	37.76058
783.763	50.18713
783.944	32.10115
784.124	23.04308
784.305	60.02796
784.486	46.95335
784.666	36.7021
784.847	23.14675
785.027	83.47632
785.208	30.52813
785.388	30.77683
785.569	29.09264
785.749	35.17516
785.93	35.02969
786.11	21.5547
786.291	45.895
786.471	42.21892
786.652	49.89763
786.832	37.03492
787.012	39.97182
787.193	26.79715
787.373	40.05232
787.553	32.40812
787.734	41.72241
787.914	35.65455
788.094	50.50641
788.275	40.49326
788.455	33.71327
788.635	26.19533
788.815	41.58127
788.995	27.75006
789.176	22.51818
789.356	30.43873
789.536	35.94547
789.716	43.85077
789.896	31.55875
790.076	32.72252
790.256	44.36379
790.436	17.25577
790.616	27.69667
790.796	40.85667
790.976	35.35837
791.156	29.28399
791.336	46.61114
791.516	42.15548
791.696	36.17537
791.876	23.14707
792.056	41.11571
792.236	49.89747
792.416	46.7275
792.596	42.42426
792.776	44.54537
792.956	46.92216
793.135	60.89031
793.315	27.41157
793.495	51.8456
793.675	48.66829
793.854	47.12604
794.034	51.708
794.214	27.75968
794.394	49.71299
794.573	54.59619
794.753	40.21422
794.933	30.37825
795.112	40.60599
795.292	51.59748
795.472	60.66926
795.651	25.13703
795.831	39.09146
796.01	36.03094
796.19	35.16725
796.369	39.61351
796.549	45.47782
796.728	36.38555
796.908	23.98411
797.087	24.40297
797.267	35.66546
797.446	27.044
797.626	44.6007
797.805	43.36398
797.984	30.08077
798.164	48.06026
798.343	29.44312
798.522	41.47054
798.702	41.43542
798.881	26.86596
799.06	34.79882
799.239	19.61202
799.419	29.44736
799.598	62.85881
799.777	44.72757
799.956	51.86111
800.136	35.35664
800.315	29.42806
800.494	43.83909
800.673	50.55448
800.852	47.69447
801.031	53.65688
801.21	45.37682
801.389	34.92057
801.568	42.72883
801.747	62.89449
801.926	39.39841
802.105	58.12807
802.284	34.79732
802.463	58.99213
802.642	42.12149
802.821	42.09592
803	57.46279
803.179	49.96743
803.358	53.07568
803.537	31.63722
803.716	40.27734
803.895	33.42803
804.073	37.45543
804.252	31.42508
804.431	45.84765
804.61	39.0072
804.789	50.34833
804.967	33.9361
805.146	34.36575
805.325	69.23339
805.503	46.14874
805.682	25.79005
805.861	85.22168
806.039	56.26553
806.218	32.91855
806.397	42.33975
806.575	40.13408
806.754	43.99234
806.932	29.90306
807.111	52.68022
807.289	53.10001
807.468	41.92038
807.646	53.01993
807.825	46.67997
808.003	43.79514
808.182	53.26288
808.36	39.61032
808.539	30.34532
808.717	60.08975
808.895	32.73699
809.074	45.89039
809.252	40.69781
809.43	48.71641
809.609	54.43265
809.787	60.61048
809.965	39.91332
810.144	41.67823
810.322	40.1818
810.5	48.4352
810.678	36.85301
810.856	70.49278
811.035	55.09292
811.213	50.15016
811.391	58.1185
811.569	46.79761
811.747	91.61391
811.925	56.02843
812.103	33.81811
812.281	41.32792
812.459	66.08624
812.637	66.3931
812.816	54.14029
812.994	72.60122
813.171	61.97672
813.349	48.0054
813.527	56.97419
813.705	67.01719
813.883	79.66005
814.061	55.0764
814.239	66.70813
814.417	76.65205
814.595	52.08535
814.773	51.13033
814.95	44.14011
815.128	51.02718
815.306	47.35778
815.484	41.89971
815.662	32.83127
815.839	27.84848
816.017	37.89622
816.195	62.71735
816.372	36.9195
816.55	55.15013
816.728	66.55772
816.905	41.11914
817.083	66.59689
817.261	44.52144
817.438	86.16525
817.616	69.59965
817.793	38.17452
817.971	55.28734
818.148	55.02543
818.326	64.47373
818.503	48.61757
818.681	66.83646
818.858	41.04825
819.036	45.16049
819.213	47.29232
819.391	36.173
819.568	35.90655
819.745	32.56361
819.923	53.88399
820.1	40.08015
820.277	33.54348
820.455	38.99074
820.632	42.56807
820.809	45.59188
820.986	30.75248
821.164	25.22994
821.341	23.40394
821.518	34.0659
821.695	25.71722
821.872	23.47776
822.05	21.00542
822.227	17.4963
822.404	18.91779
822.581	21.15265
822.758	18.7351
822.935	18.95686
823.112	21.29963
823.289	18.63574
823.466	22.17898
823.643	21.50067
823.82	24.54068
823.997	23.62263
824.174	27.20073
824.351	34.00803
824.528	32.71913
824.705	31.56908
824.882	33.75818
825.059	41.09399
825.236	32.09462
825.412	33.01812
825.589	37.64474
825.766	49.54271
825.943	32.96356
826.12	36.96244
826.296	28.59776
826.473	34.06356
826.65	33.73181
826.827	37.50276
827.003	25.85671
827.18	29.69944
827.357	32.28744
827.533	28.2041
827.71	18.6826
827.887	25.30363
828.063	28.70768
828.24	25.15996
828.416	32.06639
828.593	27.98256
828.769	37.71339
828.946	39.32859
829.122	40.33932
829.299	39.91037
829.475	29.23938
829.652	40.66889
829.828	58.9861
830.005	41.32221
830.181	53.47342
830.357	41.70036
830.534	54.03436
830.71	43.08768
830.886	54.71006
831.063	51.78889
831.239	64.34542
831.415	32.78582
831.592	64.17183
831.768	44.69182
831.944	38.10725
832.12	69.11373
832.296	63.04358
832.473	55.62254
832.649	37.54046
832.825	54.04014
833.001	34.74708
833.177	47.72239
833.353	43.48955
833.529	27.98908
833.705	40.20345
833.881	27.8231
834.058	27.79618
834.234	30.15815
834.41	29.51479
834.586	24.69872
834.761	28.37788
834.937	31.65839
835.113	32.88888
835.289	29.09176
835.465	33.66409
835.641	31.34549
835.817	34.13019
835.993	53.71793
836.169	32.59476
836.344	45.41876
836.52	50.19834
836.696	47.24729
836.872	39.14059
837.048	95.19284
837.223	40.72749
837.399	73.87933
837.575	59.36724
837.75	55.44862
837.926	75.07023
838.102	110.54976
838.277	86.86541
838.453	118.14288
838.628	119.75121
838.804	47.57704
838.98	102.29651
839.155	55.92007
839.331	74.2553
839.506	52.55688
839.682	55.69729
839.857	74.37068
840.033	85.68197
840.208	43.26023
840.384	25.30157
840.559	43.84295
840.734	65.10523
840.91	82.88133
841.085	50.41505
841.26	52.18246
841.436	46.24624
841.611	48.68503
841.786	68.09066
841.962	90.55028
842.137	58.70411
842.312	40.537
842.487	53.35582
842.663	43.88767
842.838	54.78677
843.013	155.87751
843.188	81.28294
843.363	66.93471
843.538	133.59306
843.714	132.57056
843.889	134.49178
844.064	147.04572
844.239	119.13288
844.414	134.94741
844.589	90.30455
844.764	166.21834
844.939	162.78373
845.114	172.30888
845.289	166.64572
845.464	225.85203
845.639	156.33689
845.814	81.66659
845.989	90.4014
846.163	112.46024
846.338	114.95634
846.513	160.60546
846.688	105.833
846.863	111.172
847.038	102.13622
847.212	110.65145
847.387	121.61342
847.562	119.18664
847.737	154.64334
847.911	60.1386
848.086	70.24856
848.261	246.48798
848.435	105.37851
848.61	152.92076
848.785	85.52171
848.959	161.9614
849.134	216.14599
849.308	227.50846
849.483	117.13835
849.658	190.81705
849.832	105.10649
850.007	90.7027
850.181	246.64989
850.356	94.50372
850.53	229.26543
850.705	82.29363
850.879	51.66746
851.053	118.34872
851.228	101.52379
851.402	128.82022
851.577	176.21895
851.751	183.31255
851.925	125.72861
852.099	62.3175
852.274	92.21564
852.448	117.75659
852.622	142.87479
852.797	120.66599
852.971	113.20559
853.145	128.62054
853.319	351.7962
853.493	181.93464
853.668	98.92779
853.842	224.55829
854.016	175.15763
854.19	205.99891
854.364	134.57915
854.538	139.27447
854.712	182.67641
854.886	117.7709
855.06	111.08599
855.234	47.95707
855.408	196.95147
855.582	165.69514
855.756	165.38999
855.93	214.49674
856.104	152.41635
856.278	169.45715
856.452	131.34487
856.626	169.3178
856.8	266.6972
856.973	150.57237
857.147	145.89246
857.321	149.39615
857.495	180.98544
857.669	122.15812
857.842	105.09713
858.016	180.43832
858.19	94.32763
858.364	287.64489
858.537	111.92604
858.711	133.91345
858.885	111.43418
859.058	104.47443
859.232	56.21257
859.405	66.17513
859.579	171.21225
859.753	144.44214
859.926	102.58004
860.1	68.8784
860.273	130.14643
860.447	209.45345
860.62	112.63849
860.794	254.61257
860.967	146.60209
861.141	182.63862
861.314	260.50501
861.487	158.41626
861.661	202.63145
861.834	207.05792
862.008	183.43407
862.181	125.91298
862.354	131.55792
862.528	152.44613
862.701	100.83263
862.874	71.63903
863.047	117.7942
863.221	111.17615
863.394	60.80236
863.567	209.31202
863.74	52.50444
863.913	171.40156
864.087	151.49232
864.26	175.19678
864.433	129.40446
864.606	239.37232
864.779	133.16102
864.952	66.37931
865.125	106.78675
865.298	121.27175
865.471	129.65691
865.644	259.60257
865.817	204.96513
865.99	178.73317
866.163	187.65575
866.336	119.67475
866.509	132.21444
866.682	109.04302
866.855	195.01271
867.028	82.37558
867.2	160.31393
867.373	55.91544
867.546	144.57611
867.719	264.02942
867.892	164.40165
868.064	99.31459
868.237	153.77199
868.41	131.0623
868.583	94.28306
868.755	88.37855
868.928	128.8799
869.101	275.8108
869.273	196.28416
869.446	164.50494
869.619	187.61816
869.791	128.84728
869.964	186.19928
870.136	172.8147
870.309	146.07646
870.481	144.83153
870.654	70.51485
870.826	144.52989
870.999	113.65639
871.171	174.01499
871.344	115.36509
871.516	129.49536
871.689	97.50722
871.861	145.82022
872.033	100.04953
872.206	111.92095
872.378	184.45996
872.55	123.97235
872.723	79.041
872.895	126.71199
873.067	190.99877
873.24	213.36895
873.412	108.67622
873.584	125.58778
873.756	114.91625
873.928	152.5003
874.101	154.62139
874.273	168.75532
874.445	64.58118
874.617	85.42217
874.789	149.39322
874.961	121.82699
875.133	166.10276
875.305	140.5515
875.477	95.46064
875.649	76.7686
875.821	98.15397
875.993	226.39381
876.165	93.92343
876.337	152.59313
876.509	126.451
876.681	149.73022
876.853	146.79169
877.025	148.14589
877.197	97.84317
877.369	96.87088
877.541	186.37788
877.712	57.79771
877.884	87.54541
878.056	165.3197
878.228	91.83145
878.4	154.29389
878.571	96.35679
878.743	66.48648
878.915	145.75941
879.086	86.05874
879.258	112.41071
879.43	100.33688
879.601	88.76795
879.773	92.50691
879.945	26.39625
880.116	44.05865
880.288	29.24599
880.459	31.01232
880.631	25.72497
880.802	30.35331
880.974	29.02517
881.145	21.47913
881.317	27.76704
881.488	22.43863
881.66	25.0683
881.831	23.22395
882.002	30.77672
882.174	24.63452
882.345	30.7127
882.517	21.67294
882.688	35.46872
882.859	33.28939
883.03	47.08065
883.202	46.10721
883.373	43.92396
883.544	45.50669
883.715	68.40024
883.887	59.78804
884.058	55.72744
884.229	72.45298
884.4	75.67935
884.571	82.55623
884.742	75.89006
884.914	79.21153
885.085	102.3147
885.256	120.55828
885.427	100.76926
885.598	115.57632
885.769	120.4882
885.94	121.39602
886.111	84.03311
886.282	131.95642
886.453	113.76555
886.624	83.39952
886.795	127.18805
886.966	109.20345
887.136	140.047
887.307	94.41655
887.478	165.88931
887.649	151.77438
887.82	154.85524
887.991	118.99854
888.161	165.01762
888.332	163.79712
888.503	90.18841
888.674	207.57212
888.844	218.93417
889.015	175.1328
889.186	90.08184
889.356	207.5759
889.527	88.66469
889.698	351.88994
889.868	126.73188
890.039	153.86168
890.209	135.76397
890.38	184.55369
890.551	151.11579
890.721	224.79507
890.892	178.56078
891.062	123.54122
891.233	157.05937
891.403	130.21153
891.574	103.10598
891.744	127.12744
891.914	170.20522
892.085	141.49891
892.255	55.48277
892.425	212.9214
892.596	174.48929
892.766	156.71648
892.936	219.30655
893.107	179.80441
893.277	110.10706
893.447	86.36735
893.618	62.71877
893.788	119.37327
893.958	67.83051
894.128	70.53189
894.298	76.16338
894.468	103.63138
894.639	51.34868
894.809	36.48945
894.979	57.22299
895.149	65.91146
895.319	52.48722
895.489	65.10995
895.659	88.51954
895.829	64.70221
895.999	68.38301
896.169	54.03022
896.339	65.3818
896.509	124.18645
896.679	139.15607
896.849	137.05232
897.019	185.50071
897.189	151.65654
897.358	135.02162
897.528	188.33433
897.698	80.66685
897.868	179.02738
898.038	285.01618
898.208	272.56681
898.377	109.8939
898.547	283.148
898.717	427.11405
898.886	171.0024
899.056	277.51214
899.226	392.67822
899.395	258.22803
899.565	302.84033
899.735	203.78086
899.904	324.86747
900.074	280.86396
900.244	133.75013
900.413	485.01322
900.583	119.92478
900.752	193.99462
900.922	306.57795
901.091	46.87928
901.261	266.09079
901.43	258.68043
901.599	235.09289
901.769	551.3445
901.938	289.10949
902.108	274.52091
902.277	368.63525
902.446	124.01158
902.616	121.08802
902.785	167.80728
902.954	283.93519
903.124	187.76285
903.293	151.95686
903.462	88.5347
903.631	122.05178
903.801	89.97002
903.97	48.24065
904.139	82.70467
904.308	63.10322
904.477	53.41444
904.646	34.9641
904.816	52.40361
904.985	74.83456
905.154	106.52717
