Data from WindowProjectSample_Transmission__2__00002__008611376730893416.txt Node

Date: Mon May 05 16:23:58 EDT 2025
User: jessi
Spectrometer: SR400872
Trigger mode: 0
Integration Time (sec): 5.000010E-1
Scans to average: 20
Electric dark correction enabled: true
Nonlinearity correction enabled: true
Boxcar width: 0
XAxis mode: Wavelengths
Number of Pixels in Spectrum: 3648
>>>>>Begin Spectral Data<<<<<
184.909	18553.02372
185.132	-4602.42143
185.355	-2767.4995
185.578	-15883.85693
185.801	908.94426
186.024	9247.00424
186.247	-1799.79944
186.47	1167.241
186.693	302.56235
186.916	278.78432
187.139	-3393.65912
187.362	2858.8771
187.585	3738.41506
187.808	3355.67791
188.031	98.55763
188.254	-54267.78287
188.476	-569.21549
188.699	5551.88583
188.922	572.49188
189.145	-13795.34693
189.368	-596.45718
189.591	-1394.40753
189.813	2771.60046
190.036	-43341.32356
190.259	-767.95853
190.482	-4111.33155
190.705	6272.92374
190.927	-2316.87782
191.15	11780.80602
191.373	3014.73526
191.595	-7835.98428
191.818	-3823.93955
192.041	-4603.66675
192.263	-3211.82423
192.486	-712.24612
192.709	-3440.6122
192.931	6967.85141
193.154	-25208.23272
193.377	-2503.44659
193.599	-2282.81271
193.822	-8111.74249
194.044	-1705.31367
194.267	1103.65292
194.489	255.67865
194.712	-39791.09964
194.934	-28957.92834
195.157	1096.11888
195.379	1240.0937
195.602	-6034.30974
195.824	-1173.23988
196.047	-7926.33633
196.269	2481.86964
196.492	-6469.98163
196.714	26195.33756
196.936	-7651.05951
197.159	-1085.02839
197.381	1098.11861
197.604	301.35819
197.826	10266.37283
198.048	-9685.75584
198.271	-2456.19246
198.493	6399.44399
198.715	2127.10747
198.938	-394.08175
199.16	6127.68363
199.382	-92094.73059
199.604	1998.01127
199.827	-930.24078
200.049	-2656.60409
200.271	12266.75138
200.493	1094.67188
200.715	-35195.86359
200.938	-5510.70101
201.16	-3798.67006
201.382	17464.08283
201.604	2157.56903
201.826	2017.00082
202.048	-1665.4231
202.27	-1864.08014
202.492	-33664.53136
202.715	2545.34484
202.937	-3927.75042
203.159	-5763.16401
203.381	1285.93163
203.603	6339.98753
203.825	6409.75536
204.047	1953.74906
204.269	-2530.99153
204.491	1989.9403
204.713	5309.13934
204.935	-453981.75844
205.156	1097.70158
205.378	-2470.69586
205.6	1477.58886
205.822	138603.48961
206.044	-906.79497
206.266	1383.2649
206.488	3784.13101
206.71	-4838.83065
206.932	941.32173
207.153	11372.97401
207.375	-5885.24017
207.597	-34588.92245
207.819	-2533.9105
208.041	2154.33477
208.262	505.91314
208.484	675.93168
208.706	-720.00626
208.927	-797.18747
209.149	545.08885
209.371	-2618.50404
209.593	-291.62747
209.814	-769.61562
210.036	375.59897
210.258	-544.48243
210.479	1674.30866
210.701	1414.41899
210.922	2989.67992
211.144	-3384.74265
211.366	1938.36948
211.587	6400.73937
211.809	-7577.68912
212.03	2172.92409
212.252	446.09206
212.473	1835.95618
212.695	-6085.5968
212.916	2805.87265
213.138	-623.78645
213.359	3265.39681
213.581	4596.96564
213.802	-694.59239
214.024	993.83704
214.245	1890.85261
214.466	2648.14262
214.688	-2823.93875
214.909	-1044.00592
215.131	-1534.83946
215.352	-2849.68154
215.573	13547.5341
215.795	4811.44505
216.016	4897.73774
216.237	672.46251
216.459	3206.0524
216.68	1604.28567
216.901	4501.54317
217.122	-2870.31701
217.344	-10554.98765
217.565	3134.72306
217.786	8290.72441
218.007	13395.55507
218.228	-701.35358
218.45	5030.99955
218.671	619.01308
218.892	33813.50134
219.113	1304.01609
219.334	-121.06163
219.555	9128.4421
219.776	2803.44007
219.997	20536.54002
220.219	2341.34803
220.44	-9682.62026
220.661	421.8911
220.882	1349.51298
221.103	-848.89098
221.324	1897.71713
221.545	2018.66152
221.766	-8253.03585
221.987	836.23552
222.208	1537.58553
222.429	3867.3601
222.65	30.21611
222.87	17301.61833
223.091	674.22233
223.312	506.44029
223.533	1253.05179
223.754	1383.61334
223.975	1235.53138
224.196	1913.88855
224.417	1198.33113
224.637	520.79071
224.858	81.70107
225.079	966.95201
225.3	588.37068
225.521	3512.5858
225.741	432.48042
225.962	462.27732
226.183	123.23186
226.404	598.73157
226.624	388.47595
226.845	553.35455
227.066	373.52441
227.286	214.16856
227.507	109.05359
227.728	104.33551
227.948	211.45914
228.169	66.63603
228.389	72.86047
228.61	43.89675
228.831	55.96332
229.051	2.00086
229.272	32.58827
229.492	51.88128
229.713	10.29124
229.933	32.57979
230.154	30.02093
230.374	49.05215
230.595	35.31454
230.815	19.10251
231.036	35.62123
231.256	-8.8466
231.477	60.10455
231.697	34.17954
231.917	33.87858
232.138	48.63261
232.358	96.7163
232.579	89.91703
232.799	19.30261
233.019	90.28444
233.24	101.78163
233.46	33.68777
233.68	54.43682
233.901	40.42405
234.121	21.08548
234.341	10.28518
234.561	-4.79779
234.782	18.34773
235.002	58.57826
235.222	-4.4421
235.442	58.12945
235.662	27.09019
235.883	54.80753
236.103	46.43586
236.323	35.27037
236.543	25.23675
236.763	37.20585
236.983	39.28399
237.203	37.39554
237.423	52.61096
237.643	77.3767
237.864	66.25427
238.084	15.03368
238.304	22.31397
238.524	39.18716
238.744	37.44507
238.964	63.33948
239.184	53.67855
239.404	58.46563
239.624	31.89076
239.843	53.51979
240.063	34.00236
240.283	19.99852
240.503	23.32031
240.723	22.92512
240.943	12.74413
241.163	17.82494
241.383	13.09653
241.603	5.93915
241.822	8.6994
242.042	5.94306
242.262	7.30362
242.482	8.37359
242.702	9.92223
242.921	2.44001
243.141	6.07364
243.361	5.66962
243.581	8.73841
243.8	6.54472
244.02	4.2744
244.24	8.78184
244.459	8.41705
244.679	16.14149
244.899	10.1657
245.118	11.25818
245.338	10.66874
245.558	13.17456
245.777	7.44236
245.997	8.93684
246.216	9.58617
246.436	5.63613
246.655	4.42628
246.875	2.74251
247.094	5.63887
247.314	1.83997
247.533	3.21242
247.753	4.03949
247.972	3.02908
248.192	1.05679
248.411	1.7277
248.631	3.06616
248.85	4.1836
249.07	3.46823
249.289	5.25978
249.508	4.79707
249.728	6.42119
249.947	6.21609
250.166	8.22399
250.386	3.89981
250.605	5.84092
250.824	9.98757
251.044	6.56121
251.263	26.14037
251.482	12.93494
251.701	10.51647
251.921	-0.19417
252.14	2.80098
252.359	3.36239
252.578	9.16171
252.798	2.61199
253.017	8.33086
253.236	3.38614
253.455	5.13315
253.674	9.28775
253.893	4.25301
254.112	7.02483
254.331	9.92534
254.551	7.51173
254.77	2.76542
254.989	10.72554
255.208	8.13539
255.427	13.31459
255.646	9.35429
255.865	19.95515
256.084	8.31679
256.303	9.87122
256.522	12.34138
256.741	2.57961
256.96	2.2203
257.179	7.38458
257.397	9.76933
257.616	5.32683
257.835	5.16906
258.054	13.76127
258.273	9.57854
258.492	9.71734
258.711	6.49975
258.93	2.79038
259.148	4.06472
259.367	4.21875
259.586	5.06371
259.805	2.02859
260.023	4.67529
260.242	3.47444
260.461	2.44336
260.68	1.0979
260.898	4.0039
261.117	1.33356
261.336	0.72203
261.554	3.18658
261.773	3.23751
261.992	0.53573
262.21	2.77628
262.429	3.35212
262.648	7.01886
262.866	7.4145
263.085	4.79923
263.303	4.21232
263.522	7.46825
263.74	7.8636
263.959	13.70203
264.178	6.097
264.396	5.81221
264.615	4.17633
264.833	9.28446
265.051	7.77734
265.27	9.87565
265.488	10.45164
265.707	5.52824
265.925	9.80343
266.144	4.59179
266.362	5.16199
266.58	5.04124
266.799	4.52666
267.017	5.52037
267.235	4.65914
267.454	2.87116
267.672	1.78446
267.89	3.75928
268.109	3.83673
268.327	3.9322
268.545	0.77959
268.763	3.59249
268.982	1.3095
269.2	3.64642
269.418	2.78545
269.636	1.70589
269.854	4.19309
270.073	2.84343
270.291	1.6838
270.509	1.36727
270.727	3.82333
270.945	6.34271
271.163	6.41747
271.381	1.00857
271.599	3.00344
271.817	4.7842
272.036	1.66326
272.254	2.78546
272.472	2.19651
272.69	2.27983
272.908	2.03968
273.126	4.06746
273.344	4.6655
273.562	1.65353
273.779	2.36204
273.997	3.25262
274.215	3.69721
274.433	2.72504
274.651	3.96327
274.869	4.32124
275.087	2.62086
275.305	3.6386
275.523	2.3153
275.74	2.52292
275.958	4.8495
276.176	7.49902
276.394	2.35688
276.612	2.96853
276.829	3.04529
277.047	2.30425
277.265	2.76139
277.483	3.11877
277.7	3.87793
277.918	3.07539
278.136	5.60865
278.353	2.71588
278.571	1.7399
278.789	3.7617
279.006	0.78616
279.224	2.80642
279.442	4.55307
279.659	3.35724
279.877	2.15043
280.094	5.40335
280.312	0.84224
280.529	3.03517
280.747	0.84123
280.964	2.22522
281.182	5.47732
281.399	2.4668
281.617	3.5214
281.834	2.47372
282.052	1.83421
282.269	2.87149
282.487	2.21181
282.704	1.85207
282.921	1.97362
283.139	2.99801
283.356	3.5773
283.574	3.44999
283.791	1.71238
284.008	5.14943
284.226	2.50501
284.443	2.96657
284.66	4.06357
284.877	3.07813
285.095	1.75127
285.312	1.51427
285.529	0.69384
285.746	0.75684
285.964	1.87283
286.181	1.28851
286.398	1.6174
286.615	2.31675
286.832	2.3454
287.05	0.54227
287.267	1.55015
287.484	1.65547
287.701	2.35572
287.918	2.27409
288.135	2.18852
288.352	1.14042
288.569	1.31557
288.786	2.10371
289.003	1.77981
289.22	2.70126
289.437	1.37059
289.654	2.66681
289.871	2.73528
290.088	2.66782
290.305	1.98435
290.522	1.49995
290.739	1.849
290.956	2.83954
291.173	3.11916
291.39	3.14217
291.607	2.13304
291.824	1.45967
292.04	1.10086
292.257	2.67737
292.474	2.85641
292.691	1.69707
292.908	0.77581
293.125	1.66177
293.341	0.99332
293.558	4.45902
293.775	1.70133
293.992	1.861
294.208	0.74874
294.425	1.1691
294.642	1.66511
294.858	2.72613
295.075	0.69625
295.292	1.73249
295.508	2.05095
295.725	3.75119
295.942	1.44251
296.158	1.06055
296.375	1.85725
296.591	1.41103
296.808	1.5491
297.024	1.75035
297.241	1.99412
297.458	2.22014
297.674	0.20788
297.891	1.7234
298.107	1.40211
298.323	1.06093
298.54	2.94487
298.756	1.29004
298.973	0.67252
299.189	2.91096
299.406	1.24567
299.622	2.64811
299.838	2.50957
300.055	2.64869
300.271	0.64204
300.487	1.08464
300.704	1.37212
300.92	0.73807
301.136	3.94159
301.353	2.54818
301.569	1.73942
301.785	2.19816
302.001	2.62766
302.218	2.24696
302.434	2.33523
302.65	0.92501
302.866	1.50814
303.083	3.81289
303.299	3.70172
303.515	2.07281
303.731	2.06334
303.947	0.83492
304.163	1.4536
304.379	2.18552
304.595	2.41713
304.812	1.38754
305.028	1.44949
305.244	1.80894
305.46	2.73196
305.676	2.67472
305.892	3.11246
306.108	2.46141
306.324	1.52716
306.54	3.55975
306.756	2.46467
306.972	2.36782
307.187	1.90529
307.403	3.15712
307.619	1.59998
307.835	3.01948
308.051	3.40503
308.267	1.24487
308.483	3.0425
308.699	2.54548
308.914	1.97058
309.13	1.85992
309.346	0.91896
309.562	1.25624
309.778	0.96568
309.993	2.43159
310.209	2.0975
310.425	1.08979
310.641	1.93002
310.856	1.25249
311.072	1.14378
311.288	1.93885
311.503	2.11391
311.719	0.72305
311.935	0.50015
312.15	2.42574
312.366	1.9803
312.581	2.44252
312.797	1.93603
313.013	2.70298
313.228	1.48767
313.444	1.94407
313.659	1.40999
313.875	2.50073
314.09	1.93212
314.306	3.1151
314.521	2.68656
314.737	2.64045
314.952	2.08366
315.168	1.91254
315.383	2.34637
315.599	1.7961
315.814	1.55676
316.029	2.52137
316.245	1.00633
316.46	0.61344
316.675	3.11684
316.891	3.49438
317.106	4.49913
317.321	2.25319
317.537	2.57336
317.752	2.82913
317.967	2.83911
318.183	1.31911
318.398	1.62903
318.613	2.77429
318.828	3.18971
319.043	2.80833
319.259	1.86244
319.474	2.33627
319.689	3.0454
319.904	0.60108
320.119	2.66811
320.334	2.23353
320.549	1.8055
320.765	2.98385
320.98	2.36298
321.195	2.56441
321.41	1.97997
321.625	2.66384
321.84	3.53073
322.055	3.52361
322.27	1.52302
322.485	1.26928
322.7	2.31796
322.915	2.60842
323.13	1.42099
323.345	3.36775
323.56	2.68342
323.775	2.72074
323.989	2.30395
324.204	2.22934
324.419	3.10841
324.634	1.13637
324.849	2.06033
325.064	4.97476
325.279	2.87165
325.493	2.49264
325.708	2.76723
325.923	1.416
326.138	1.67244
326.352	3.56003
326.567	2.97758
326.782	1.74274
326.997	1.58641
327.211	2.56483
327.426	2.46983
327.641	1.71993
327.855	0.89541
328.07	2.46681
328.285	3.58358
328.499	1.84092
328.714	2.39705
328.928	2.68496
329.143	1.94816
329.358	2.96474
329.572	3.03614
329.787	3.23954
330.001	4.14718
330.216	1.23068
330.43	3.83312
330.645	3.35218
330.859	2.8683
331.074	1.5962
331.288	2.31129
331.503	3.23668
331.717	1.41007
331.931	2.386
332.146	2.32998
332.36	3.7196
332.575	2.51847
332.789	2.35011
333.003	2.46923
333.218	2.70187
333.432	1.57162
333.646	2.92999
333.86	3.48997
334.075	3.55047
334.289	1.96696
334.503	1.3625
334.717	2.4431
334.932	2.51654
335.146	3.2592
335.36	1.87021
335.574	2.75763
335.788	2.53745
336.003	3.06288
336.217	2.78064
336.431	2.68579
336.645	1.68393
336.859	1.26647
337.073	2.21135
337.287	2.48168
337.501	1.30883
337.715	2.56036
337.929	2.95869
338.143	1.28176
338.357	1.98722
338.571	1.58064
338.785	2.56392
338.999	1.98799
339.213	1.88283
339.427	1.16782
339.641	3.33375
339.855	1.93934
340.069	1.65227
340.283	2.81852
340.497	3.72566
340.711	2.55251
340.924	2.22258
341.138	1.33179
341.352	1.1601
341.566	2.43095
341.78	1.06211
341.993	1.8549
342.207	1.51144
342.421	2.3371
342.635	2.13909
342.848	1.89234
343.062	0.62064
343.276	1.6218
343.49	3.80069
343.703	1.71598
343.917	3.06322
344.131	3.00849
344.344	1.68128
344.558	1.99007
344.771	1.17168
344.985	3.47407
345.199	3.47453
345.412	2.38612
345.626	2.51672
345.839	1.05964
346.053	1.3501
346.266	1.39618
346.48	2.77326
346.693	2.45928
346.907	2.39945
347.12	1.50856
347.334	2.33936
347.547	2.4935
347.76	2.00284
347.974	2.98368
348.187	2.52485
348.401	1.95831
348.614	1.64465
348.827	1.88467
349.041	2.54653
349.254	0.9281
349.467	1.95541
349.681	1.26062
349.894	1.64146
350.107	3.03833
350.32	3.61244
350.534	1.10202
350.747	1.80466
350.96	1.54084
351.173	1.74116
351.386	1.9395
351.6	1.7903
351.813	1.92009
352.026	2.01577
352.239	1.24078
352.452	1.99361
352.665	2.83201
352.878	2.07345
353.092	3.59589
353.305	2.75854
353.518	2.40286
353.731	1.50292
353.944	3.07378
354.157	1.74551
354.37	1.5546
354.583	1.53843
354.796	1.0576
355.009	2.84457
355.222	2.38344
355.435	2.18751
355.647	2.82808
355.86	1.51121
356.073	2.27758
356.286	1.83233
356.499	2.63696
356.712	2.39814
356.925	2.57555
357.138	2.78267
357.35	1.53031
357.563	1.90963
357.776	2.19789
357.989	1.95092
358.201	2.44913
358.414	2.30471
358.627	3.15791
358.84	1.98007
359.052	1.30069
359.265	1.62034
359.478	2.83289
359.69	0.44231
359.903	2.63527
360.116	2.84267
360.328	1.10025
360.541	2.74343
360.753	1.58504
360.966	1.8773
361.179	1.96106
361.391	1.84419
361.604	1.46854
361.816	1.90199
362.029	1.75088
362.241	1.56274
362.454	1.77315
362.666	1.49674
362.879	2.27823
363.091	1.871
363.304	1.65648
363.516	2.02187
363.728	1.48145
363.941	2.51427
364.153	2.00398
364.366	0.91673
364.578	1.34062
364.79	2.32213
365.003	2.12011
365.215	1.70287
365.427	2.51094
365.639	2.89142
365.852	2.22068
366.064	3.74287
366.276	2.01108
366.488	2.46798
366.701	1.94514
366.913	2.15588
367.125	2.07045
367.337	1.67795
367.549	1.83071
367.762	2.30806
367.974	2.18417
368.186	1.80542
368.398	2.80972
368.61	2.66027
368.822	2.76456
369.034	2.10428
369.246	2.75255
369.458	4.23814
369.67	1.7628
369.882	3.51807
370.094	1.09067
370.306	3.38227
370.518	2.09605
370.73	1.84809
370.942	1.93045
371.154	2.29878
371.366	2.03779
371.578	2.53309
371.79	2.01893
372.002	3.13943
372.214	3.68535
372.425	2.39252
372.637	3.26955
372.849	2.65157
373.061	1.15042
373.273	2.67958
373.484	2.6141
373.696	2.99546
373.908	1.15317
374.12	3.17606
374.331	2.76661
374.543	1.9978
374.755	1.91923
374.967	2.57294
375.178	2.9643
375.39	2.25504
375.602	2.57428
375.813	1.62572
376.025	1.80707
376.236	2.58113
376.448	2.71533
376.66	2.22024
376.871	2.31672
377.083	3.4112
377.294	3.49832
377.506	2.30979
377.717	3.48768
377.929	2.82895
378.14	2.25761
378.352	2.83312
378.563	2.94751
378.775	3.5203
378.986	2.02141
379.197	2.78218
379.409	2.19776
379.62	3.13964
379.832	3.0234
380.043	2.62035
380.254	2.86578
380.466	2.14519
380.677	4.54676
380.888	4.02486
381.1	4.29085
381.311	4.43881
381.522	2.79462
381.733	4.708
381.945	2.6978
382.156	2.86357
382.367	2.50607
382.578	4.59289
382.789	4.64975
383.001	2.5953
383.212	3.91607
383.423	4.01224
383.634	3.77792
383.845	3.3352
384.056	2.78122
384.267	3.18865
384.478	3.02441
384.69	2.35495
384.901	3.27297
385.112	3.2633
385.323	4.08411
385.534	3.4268
385.745	3.37551
385.956	3.22375
386.167	2.59357
386.378	3.46417
386.588	2.63101
386.799	2.76226
387.01	2.24478
387.221	3.74857
387.432	3.27846
387.643	4.32876
387.854	3.12651
388.065	3.04114
388.275	3.23452
388.486	2.95848
388.697	3.17465
388.908	3.01266
389.119	4.01058
389.329	4.22436
389.54	3.38771
389.751	3.58549
389.962	4.1538
390.172	3.50586
390.383	3.18528
390.594	3.03886
390.804	3.1117
391.015	3.0904
391.226	3.60355
391.436	3.83129
391.647	3.76382
391.858	3.88648
392.068	2.60932
392.279	2.90349
392.489	3.72037
392.7	4.21077
392.91	3.2031
393.121	3.12491
393.331	3.92079
393.542	4.33475
393.752	3.83107
393.963	3.8944
394.173	3.85235
394.384	3.93651
394.594	3.76318
394.804	3.09957
395.015	3.87028
395.225	4.05747
395.436	3.26518
395.646	4.06943
395.856	3.56817
396.067	3.00898
396.277	4.25192
396.487	4.0635
396.697	4.05022
396.908	4.16649
397.118	4.18115
397.328	3.99393
397.538	4.37321
397.749	3.41096
397.959	4.43044
398.169	4.2499
398.379	3.23164
398.589	4.25906
398.8	4.12432
399.01	4.06555
399.22	3.7863
399.43	5.27721
399.64	3.92993
399.85	4.40399
400.06	4.13148
400.27	3.54918
400.48	4.00038
400.69	4.94981
400.9	3.83961
401.11	3.49534
401.32	4.58593
401.53	3.98415
401.74	5.0323
401.95	4.50866
402.16	3.70733
402.37	4.29222
402.58	3.86756
402.79	4.53531
403	4.87579
403.209	3.86012
403.419	4.91124
403.629	3.81667
403.839	4.86443
404.049	4.83592
404.258	4.09783
404.468	3.92092
404.678	4.69362
404.888	5.05967
405.097	4.10334
405.307	4.33832
405.517	4.75298
405.727	4.59682
405.936	4.24988
406.146	4.51604
406.356	5.14585
406.565	4.42749
406.775	4.25498
406.984	4.22247
407.194	5.53365
407.404	4.46425
407.613	4.84916
407.823	4.94493
408.032	5.14
408.242	5.13357
408.451	4.22902
408.661	4.52483
408.87	5.60713
409.08	4.06464
409.289	4.78867
409.499	4.82922
409.708	4.69317
409.918	3.61061
410.127	4.70812
410.336	5.5341
410.546	5.16613
410.755	4.49124
410.964	4.56961
411.174	4.27127
411.383	4.95997
411.592	4.96162
411.802	4.21979
412.011	5.14031
412.22	4.56971
412.429	5.77936
412.639	5.60627
412.848	5.3148
413.057	5.57985
413.266	5.51728
413.475	4.82656
413.685	5.17491
413.894	5.56451
414.103	5.60029
414.312	5.34539
414.521	4.85442
414.73	5.0467
414.939	6.28379
415.148	5.21386
415.357	5.20987
415.566	4.92868
415.776	4.92579
415.985	4.99112
416.194	5.61873
416.403	6.28781
416.611	4.6027
416.82	5.12684
417.029	5.35755
417.238	5.07548
417.447	4.92802
417.656	5.25373
417.865	5.01361
418.074	5.34728
418.283	5.46875
418.492	6.04226
418.7	5.83028
418.909	6.6344
419.118	5.92639
419.327	6.3225
419.536	6.13178
419.744	6.06252
419.953	7.03712
420.162	7.21097
420.371	6.69515
420.579	6.96752
420.788	7.74797
420.997	7.75842
421.205	8.08322
421.414	7.84676
421.623	7.90931
421.831	7.66454
422.04	8.041
422.249	7.41575
422.457	7.7891
422.666	7.12392
422.874	7.82378
423.083	7.89805
423.291	7.92267
423.5	7.77418
423.708	8.03374
423.917	8.43964
424.125	8.03953
424.334	7.94791
424.542	9.32043
424.751	8.83885
424.959	8.55884
425.167	8.8147
425.376	8.53722
425.584	7.69774
425.793	7.66512
426.001	6.91084
426.209	7.14476
426.418	6.25372
426.626	6.09097
426.834	5.98164
427.042	6.30407
427.251	5.93871
427.459	6.68917
427.667	6.28016
427.875	5.60443
428.084	5.89196
428.292	6.82983
428.5	6.50456
428.708	5.68243
428.916	5.70308
429.124	6.12565
429.333	6.01466
429.541	6.05545
429.749	6.31312
429.957	6.17946
430.165	7.61818
430.373	5.40569
430.581	6.30965
430.789	7.03246
430.997	6.15737
431.205	5.81711
431.413	6.49163
431.621	6.14057
431.829	6.67832
432.037	6.29155
432.245	6.48304
432.453	6.5986
432.661	6.32862
432.869	7.35658
433.076	6.05115
433.284	6.48369
433.492	6.845
433.7	7.12944
433.908	6.4778
434.116	6.63012
434.323	6.68484
434.531	6.54973
434.739	6.92118
434.947	7.00699
435.154	6.98351
435.362	6.60161
435.57	6.48259
435.778	6.24522
435.985	6.72852
436.193	6.29997
436.401	7.16436
436.608	6.53612
436.816	6.36408
437.023	7.3071
437.231	7.53414
437.439	6.83184
437.646	7.0395
437.854	6.77603
438.061	7.10355
438.269	6.68637
438.476	7.04836
438.684	6.75153
438.891	6.66338
439.099	6.41368
439.306	6.40342
439.514	6.38487
439.721	7.28931
439.929	6.94666
440.136	7.72329
440.343	7.8039
440.551	7.65727
440.758	9.00254
440.965	7.93898
441.173	7.76219
441.38	7.52836
441.587	7.55457
441.795	7.32978
442.002	7.12753
442.209	7.19923
442.416	7.23263
442.624	7.23373
442.831	7.04989
443.038	6.75428
443.245	6.48729
443.452	6.78502
443.66	7.24782
443.867	6.69333
444.074	6.64304
444.281	6.70934
444.488	6.93237
444.695	6.97284
444.902	6.82717
445.109	7.68702
445.316	7.52506
445.523	7.84243
445.73	7.93177
445.937	8.74695
446.144	9.04591
446.351	9.34238
446.558	8.5345
446.765	9.98857
446.972	9.52656
447.179	9.15584
447.386	9.64147
447.593	8.41534
447.8	9.12183
448.007	8.07093
448.214	7.67233
448.42	7.28943
448.627	7.62477
448.834	7.1938
449.041	7.12155
449.248	7.05176
449.454	7.4568
449.661	8.03799
449.868	6.90449
450.075	6.90579
450.281	6.20274
450.488	6.57189
450.695	6.66578
450.901	6.80745
451.108	6.86092
451.315	7.56853
451.521	6.88989
451.728	7.73378
451.935	6.73503
452.141	7.0591
452.348	7.07005
452.554	7.13582
452.761	6.89651
452.967	7.94695
453.174	7.27409
453.38	7.30155
453.587	6.67978
453.793	7.21046
454	7.59312
454.206	8.22737
454.413	7.57601
454.619	7.37406
454.825	6.88717
455.032	7.53383
455.238	7.50253
455.445	6.55141
455.651	7.3245
455.857	6.3422
456.064	7.02866
456.27	6.92329
456.476	7.06798
456.682	6.6238
456.889	7.33624
457.095	7.40672
457.301	8.37986
457.507	7.27037
457.714	7.28621
457.92	7.2975
458.126	6.95419
458.332	7.27772
458.538	7.1392
458.744	7.20765
458.951	7.28993
459.157	8.98148
459.363	8.39169
459.569	8.57857
459.775	9.29208
459.981	8.94623
460.187	9.38972
460.393	9.54903
460.599	9.77616
460.805	9.04548
461.011	8.37653
461.217	8.38154
461.423	8.12079
461.629	7.60414
461.835	7.85776
462.041	7.54465
462.247	8.27685
462.453	7.44098
462.658	7.48691
462.864	7.79103
463.07	7.54974
463.276	7.64746
463.482	7.54079
463.688	8.13438
463.893	7.19611
464.099	7.35273
464.305	8.18554
464.511	7.22148
464.716	7.387
464.922	7.93777
465.128	7.19853
465.333	8.33982
465.539	7.85086
465.745	7.60163
465.95	7.68292
466.156	8.90655
466.362	8.18351
466.567	7.64091
466.773	7.39528
466.978	8.47064
467.184	7.10272
467.389	6.72621
467.595	7.76354
467.8	7.39736
468.006	8.4125
468.211	8.29715
468.417	7.19993
468.622	7.94862
468.828	8.04818
469.033	7.92301
469.239	8.97728
469.444	7.48744
469.649	8.10872
469.855	7.79746
470.06	7.71846
470.266	7.37402
470.471	7.97606
470.676	7.956
470.881	6.93804
471.087	8.48535
471.292	9.23612
471.497	7.2179
471.703	7.70148
471.908	7.44243
472.113	7.83184
472.318	8.17942
472.523	7.32976
472.729	8.02504
472.934	8.13056
473.139	7.5553
473.344	7.94863
473.549	8.38718
473.754	7.53734
473.959	9.27109
474.164	7.47615
474.369	7.78166
474.575	8.22448
474.78	7.9029
474.985	7.52613
475.19	7.05657
475.395	7.49611
475.6	7.84493
475.804	8.53519
476.009	7.87065
476.214	7.83611
476.419	7.80811
476.624	7.23963
476.829	7.53466
477.034	8.32476
477.239	7.59895
477.444	8.29435
477.648	8.31377
477.853	8.29592
478.058	7.95328
478.263	7.63719
478.468	7.54258
478.672	7.68797
478.877	8.69457
479.082	8.71901
479.287	8.21674
479.491	8.07645
479.696	7.71631
479.901	8.39799
480.105	8.44019
480.31	7.82575
480.515	8.10623
480.719	9.11326
480.924	7.94481
481.128	7.71081
481.333	8.32943
481.538	8.23178
481.742	8.53936
481.947	9.39196
482.151	10.25435
482.356	10.85141
482.56	12.73672
482.765	14.14713
482.969	16.80811
483.174	18.88287
483.378	21.81612
483.582	22.98195
483.787	24.83396
483.991	25.46617
484.196	26.07109
484.4	25.77208
484.604	26.41236
484.809	24.20816
485.013	22.99096
485.217	21.04268
485.422	18.89566
485.626	17.19142
485.83	16.01921
486.034	15.20442
486.239	15.33225
486.443	15.66098
486.647	15.73036
486.851	16.75111
487.055	18.00723
487.26	17.98361
487.464	18.88256
487.668	18.57706
487.872	19.33359
488.076	19.5009
488.28	18.83732
488.484	17.90263
488.688	17.38854
488.892	16.61335
489.096	15.53468
489.3	14.39228
489.504	13.36219
489.708	12.63084
489.912	12.21696
490.116	11.92754
490.32	11.48419
490.524	12.38581
490.728	13.15759
490.932	13.71017
491.136	14.54972
491.34	15.6873
491.544	16.09978
491.748	16.15484
491.951	16.35558
492.155	16.02783
492.359	15.72822
492.563	14.56229
492.767	13.79806
492.97	12.36957
493.174	11.25272
493.378	10.27245
493.582	9.08619
493.785	8.73864
493.989	8.76869
494.193	8.5918
494.396	8.54683
494.6	8.9688
494.804	8.6045
495.007	8.14873
495.211	8.37705
495.414	8.36416
495.618	8.62962
495.822	9.04283
496.025	8.59045
496.229	8.87858
496.432	8.28971
496.636	8.65086
496.839	8.52316
497.043	9.2422
497.246	8.85737
497.45	8.52404
497.653	8.69125
497.856	8.72574
498.06	8.36228
498.263	8.51141
498.467	8.56574
498.67	9.03531
498.873	8.90523
499.077	8.5914
499.28	8.60009
499.483	8.78019
499.686	9.01247
499.89	8.72022
500.093	9.12665
500.296	8.37002
500.499	9.25939
500.703	8.58657
500.906	8.79142
501.109	9.41843
501.312	8.7189
501.515	8.59226
501.719	8.81439
501.922	9.19323
502.125	8.68977
502.328	8.57611
502.531	8.16628
502.734	8.61275
502.937	7.96391
503.14	8.66327
503.343	8.30854
503.546	8.55675
503.749	8.29538
503.952	8.92274
504.155	8.35327
504.358	8.80295
504.561	8.72588
504.764	8.18405
504.967	8.74847
505.17	8.64528
505.373	9.46313
505.576	8.65921
505.778	9.03127
505.981	8.2449
506.184	9.26145
506.387	7.99604
506.59	9.63753
506.793	9.20845
506.995	8.85965
507.198	7.97867
507.401	8.97653
507.604	8.89111
507.806	8.37643
508.009	8.4133
508.212	9.18418
508.414	8.46239
508.617	8.68668
508.82	8.81592
509.022	9.39659
509.225	8.9734
509.427	8.26822
509.63	9.41866
509.833	8.90014
510.035	8.58662
510.238	8.2349
510.44	9.34851
510.643	8.03599
510.845	9.6922
511.048	9.05277
511.25	8.53882
511.453	8.78358
511.655	8.93261
511.858	8.78261
512.06	9.23926
512.262	8.95094
512.465	9.15377
512.667	8.66848
512.869	8.34639
513.072	9.07769
513.274	9.12501
513.476	9.07035
513.679	9.22916
513.881	8.46543
514.083	9.53652
514.286	8.53352
514.488	8.54224
514.69	8.36843
514.892	8.1462
515.094	9.21035
515.297	8.52784
515.499	8.91843
515.701	8.4268
515.903	9.54635
516.105	9.61851
516.307	9.19697
516.509	8.00571
516.711	8.35604
516.913	8.9101
517.116	8.89644
517.318	8.64541
517.52	9.41662
517.722	9.13699
517.924	8.45108
518.126	9.19097
518.328	8.86385
518.529	9.55725
518.731	10.34569
518.933	9.06168
519.135	9.21583
519.337	9.91227
519.539	9.28303
519.741	8.40171
519.943	8.94811
520.145	8.98192
520.346	9.37675
520.548	8.83256
520.75	9.1467
520.952	8.83302
521.153	9.24501
521.355	9.18544
521.557	8.56961
521.759	9.04543
521.96	8.95232
522.162	8.4447
522.364	9.57867
522.565	8.73601
522.767	9.21027
522.969	9.38406
523.17	9.22434
523.372	9.16413
523.573	8.80009
523.775	8.88591
523.977	8.66166
524.178	9.90786
524.38	8.83781
524.581	9.29612
524.783	8.96397
524.984	9.31604
525.186	9.19962
525.387	9.73075
525.589	9.80553
525.79	9.83793
525.991	9.95572
526.193	10.53525
526.394	10.05983
526.596	10.84967
526.797	11.12949
526.998	10.88368
527.2	11.38868
527.401	13.14742
527.602	14.15069
527.803	16.21505
528.005	17.47947
528.206	18.93163
528.407	20.21433
528.608	20.57179
528.81	20.99072
529.011	20.67213
529.212	21.64424
529.413	20.35491
529.614	19.33498
529.815	18.1773
530.017	16.76433
530.218	14.93789
530.419	13.34065
530.62	12.7749
530.821	12.02575
531.022	10.73484
531.223	11.26252
531.424	10.92314
531.625	10.87883
531.826	10.66575
532.027	11.16618
532.228	12.22235
532.429	12.50367
532.63	12.87289
532.831	13.78428
533.032	14.09326
533.233	14.8115
533.433	14.67385
533.634	14.87779
533.835	14.28685
534.036	13.79495
534.237	13.23709
534.438	12.39065
534.638	11.25912
534.839	10.67393
535.04	10.32974
535.241	9.68376
535.441	10.35297
535.642	10.03532
535.843	9.54397
536.043	9.80715
536.244	10.02512
536.445	10.26619
536.645	10.9096
536.846	10.66449
537.047	11.12528
537.247	10.19728
537.448	9.82421
537.648	9.7044
537.849	9.40481
538.049	9.38178
538.25	9.7124
538.451	9.57492
538.651	8.91889
538.851	9.68517
539.052	9.98723
539.252	9.77145
539.453	9.34708
539.653	9.53292
539.854	9.39276
540.054	9.48148
540.254	11.04727
540.455	12.16437
540.655	12.51859
540.855	14.07875
541.056	15.05649
541.256	15.24793
541.456	16.15854
541.657	16.09959
541.857	16.68763
542.057	15.6143
542.257	15.05243
542.458	15.27893
542.658	14.64344
542.858	12.94082
543.058	12.71424
543.258	12.0969
543.458	10.74405
543.659	10.21279
543.859	10.53097
544.059	10.21728
544.259	9.60324
544.459	10.1136
544.659	9.40885
544.859	9.75058
545.059	9.32884
545.259	9.87696
545.459	9.5778
545.659	9.99513
545.859	9.54027
546.059	9.70705
546.259	9.19375
546.459	8.91014
546.659	9.09649
546.859	9.85879
547.059	9.65475
547.258	9.74176
547.458	9.74647
547.658	9.11861
547.858	9.03111
548.058	9.64724
548.258	9.30213
548.457	9.03934
548.657	10.54279
548.857	9.49154
549.057	9.80969
549.256	9.75611
549.456	9.13805
549.656	8.39348
549.855	10.44755
550.055	9.06891
550.255	10.33103
550.454	9.54045
550.654	9.73454
550.853	10.19143
551.053	9.67045
551.253	9.57654
551.452	9.72812
551.652	8.73158
551.851	8.67284
552.051	9.20235
552.25	9.13101
552.45	9.03502
552.649	9.16027
552.849	8.90071
553.048	9.41809
553.248	9.82932
553.447	8.8468
553.646	9.86096
553.846	10.90226
554.045	10.15899
554.244	8.6624
554.444	10.16626
554.643	8.90878
554.842	10.33161
555.042	10.3
555.241	9.1539
555.44	8.76505
555.64	9.72954
555.839	10.21386
556.038	9.66752
556.237	8.97892
556.436	9.42062
556.636	9.55426
556.835	8.92813
557.034	10.11294
557.233	9.22667
557.432	8.52044
557.631	9.97149
557.83	9.19859
558.029	9.0456
558.228	8.90125
558.427	8.80126
558.626	9.52579
558.825	8.88029
559.024	9.12243
559.223	10.32921
559.422	9.17129
559.621	9.61058
559.82	7.91278
560.019	9.33839
560.218	8.92761
560.417	7.97085
560.616	8.91744
560.815	11.19707
561.014	8.30665
561.212	10.30963
561.411	9.24142
561.61	8.54325
561.809	9.13143
562.008	10.54269
562.206	9.17058
562.405	9.69679
562.604	9.1042
562.803	9.49434
563.001	9.26018
563.2	8.54276
563.399	9.56017
563.597	8.78909
563.796	9.30382
563.995	8.53878
564.193	9.74187
564.392	9.13922
564.59	10.58931
564.789	8.27647
564.988	9.1509
565.186	9.45899
565.385	9.33168
565.583	9.30346
565.782	9.44008
565.98	9.33984
566.179	9.35757
566.377	8.95302
566.575	9.05496
566.774	10.32851
566.972	9.98731
567.171	10.76295
567.369	10.27447
567.567	9.59602
567.766	9.76591
567.964	8.41528
568.162	9.74506
568.361	10.15949
568.559	9.29239
568.757	9.6143
568.956	9.49456
569.154	9.51215
569.352	9.73198
569.55	9.43131
569.748	9.45185
569.947	8.92976
570.145	8.69878
570.343	8.87078
570.541	10.34254
570.739	8.7359
570.937	9.40314
571.135	9.68783
571.333	10.93484
571.532	10.76111
571.73	9.62722
571.928	10.12781
572.126	9.96598
572.324	9.33042
572.522	10.24119
572.72	11.12758
572.918	9.52771
573.116	9.9315
573.313	9.38223
573.511	9.53114
573.709	9.27397
573.907	10.06985
574.105	9.33775
574.303	8.78999
574.501	8.61153
574.699	9.96213
574.896	9.77885
575.094	9.99663
575.292	8.75097
575.49	10.09174
575.688	9.37187
575.885	10.25565
576.083	10.98152
576.281	9.91216
576.478	8.92021
576.676	9.8949
576.874	8.61514
577.071	9.41735
577.269	10.91228
577.467	9.37795
577.664	9.28391
577.862	10.02034
578.059	8.97884
578.257	10.04095
578.455	9.20821
578.652	9.52879
578.85	8.12304
579.047	9.50347
579.245	9.24649
579.442	9.351
579.64	9.30853
579.837	8.3451
580.034	11.22431
580.232	9.07966
580.429	8.616
580.627	9.87711
580.824	10.25072
581.021	9.8328
581.219	9.06267
581.416	8.99596
581.613	10.33421
581.811	10.15929
582.008	8.80383
582.205	10.15819
582.402	9.61024
582.6	11.05919
582.797	9.3276
582.994	9.94898
583.191	9.96615
583.388	9.32317
583.586	9.94218
583.783	10.16544
583.98	8.63136
584.177	9.48597
584.374	7.59258
584.571	9.25845
584.768	9.30023
584.965	9.15878
585.162	10.00761
585.359	10.44047
585.556	9.40275
585.753	9.6955
585.95	8.41301
586.147	8.56831
586.344	9.70031
586.541	9.28333
586.738	8.59356
586.935	9.31867
587.132	8.89624
587.329	10.23721
587.526	9.47145
587.722	13.27573
587.919	8.45244
588.116	9.67961
588.313	10.40493
588.51	11.00859
588.706	9.41054
588.903	9.90485
589.1	10.18228
589.297	11.67277
589.493	9.53648
589.69	10.08139
589.887	9.13389
590.083	8.70056
590.28	9.19003
590.477	10.36239
590.673	9.96971
590.87	10.44585
591.067	9.06919
591.263	9.79894
591.46	9.73077
591.656	9.26095
591.853	10.8525
592.049	8.9902
592.246	9.29181
592.442	10.24621
592.639	10.39431
592.835	8.91546
593.032	9.83245
593.228	8.52633
593.425	8.62435
593.621	8.55642
593.817	9.86636
594.014	8.98186
594.21	9.81317
594.406	10.40228
594.603	9.80792
594.799	9.19034
594.995	7.99731
595.192	10.52467
595.388	9.35989
595.584	9.40844
595.78	8.69041
595.977	11.76786
596.173	10.96518
596.369	9.46581
596.565	8.91334
596.761	8.69207
596.957	10.60735
597.154	9.25429
597.35	9.45554
597.546	9.32053
597.742	10.01116
597.938	9.971
598.134	9.22774
598.33	9.89299
598.526	10.6967
598.722	9.87952
598.918	11.17022
599.114	10.13363
599.31	8.60772
599.506	9.63955
599.702	8.99309
599.898	9.70472
600.094	10.20838
600.29	10.22003
600.485	10.31572
600.681	8.93541
600.877	11.054
601.073	9.73107
601.269	11.41823
601.465	10.99411
601.66	8.77449
601.856	8.10264
602.052	11.60518
602.248	9.52428
602.443	8.22238
602.639	8.74051
602.835	9.3311
603.03	9.06823
603.226	10.41023
603.422	9.2361
603.617	9.54696
603.813	9.69356
604.009	9.43141
604.204	10.81897
604.4	8.84031
604.595	10.66568
604.791	9.23038
604.986	10.24799
605.182	9.24463
605.377	9.69337
605.573	9.68514
605.768	9.7747
605.964	10.16563
606.159	10.35114
606.355	10.72485
606.55	9.52608
606.746	10.7667
606.941	9.78556
607.136	11.22177
607.332	12.19962
607.527	8.90268
607.722	10.02929
607.918	9.48191
608.113	9.132
608.308	10.7225
608.503	10.1752
608.699	10.26546
608.894	10.38859
609.089	9.27033
609.284	10.16446
609.479	9.55966
609.675	10.64036
609.87	9.71157
610.065	10.55051
610.26	10.64689
610.455	10.55465
610.65	9.76021
610.845	10.21158
611.04	10.61126
611.235	9.76987
611.43	9.63856
611.625	9.11866
611.82	11.19476
612.015	9.37571
612.21	11.36909
612.405	8.57626
612.6	11.41281
612.795	11.20131
612.99	10.653
613.185	8.7111
613.38	9.2926
613.575	10.10675
613.77	12.79601
613.965	8.58096
614.159	9.34834
614.354	11.17042
614.549	10.94883
614.744	10.54032
614.938	8.86336
615.133	8.73897
615.328	11.38115
615.523	11.19854
615.717	12.68556
615.912	9.51305
616.107	10.11904
616.301	9.72358
616.496	9.36455
616.691	11.72423
616.885	10.69001
617.08	13.0508
617.274	10.99219
617.469	12.06463
617.664	10.73224
617.858	9.58446
618.053	10.37521
618.247	9.81953
618.442	7.92448
618.636	11.55743
618.831	9.16454
619.025	9.56758
619.219	13.29499
619.414	7.24959
619.608	9.76688
619.803	9.4191
619.997	12.24901
620.191	11.1503
620.386	10.42253
620.58	10.04665
620.774	8.26691
620.969	8.60914
621.163	10.31299
621.357	9.02819
621.551	9.92829
621.746	10.12515
621.94	9.83644
622.134	13.54869
622.328	12.30954
622.522	8.65232
622.716	11.08115
622.911	11.24283
623.105	11.2503
623.299	10.54401
623.493	13.49298
623.687	9.47011
623.881	9.45248
624.075	10.85801
624.269	11.3564
624.463	8.31423
624.657	8.48924
624.851	10.92502
625.045	11.0796
625.239	11.0849
625.433	9.87046
625.627	12.18564
625.821	9.78297
626.015	9.50821
626.209	10.32902
626.403	8.86504
626.596	10.77323
626.79	11.04501
626.984	9.26071
627.178	10.9888
627.372	10.78525
627.565	11.14666
627.759	9.21676
627.953	9.45976
628.147	10.60491
628.34	11.26116
628.534	12.84932
628.728	9.8743
628.921	11.36129
629.115	11.07351
629.309	11.22683
629.502	11.63502
629.696	10.25645
629.89	10.36773
630.083	10.75271
630.277	10.4749
630.47	12.2446
630.664	10.02652
630.857	8.79438
631.051	11.34162
631.244	11.60031
631.438	11.50754
631.631	9.69341
631.825	12.07317
632.018	11.04465
632.212	12.39772
632.405	11.90269
632.598	9.70351
632.792	10.87559
632.985	7.94016
633.178	10.04972
633.372	10.26712
633.565	10.24924
633.758	11.96741
633.952	9.51271
634.145	9.4459
634.338	10.33644
634.531	9.86258
634.724	9.58875
634.918	10.49916
635.111	10.15318
635.304	10.09627
635.497	13.33784
635.69	11.00153
635.883	11.99521
636.077	9.40314
636.27	10.93812
636.463	11.03888
636.656	10.73971
636.849	10.08119
637.042	11.24473
637.235	12.939
637.428	11.46668
637.621	11.31665
637.814	12.42999
638.007	12.48741
638.2	12.54492
638.393	12.97702
638.586	8.98202
638.778	10.03879
638.971	10.69714
639.164	12.70399
639.357	11.03324
639.55	12.88462
639.743	11.72964
639.935	11.27136
640.128	14.08051
640.321	11.94857
640.514	11.05244
640.707	13.81535
640.899	11.99379
641.092	8.79279
641.285	25.88211
641.477	8.4131
641.67	14.39463
641.863	12.60647
642.055	11.25891
642.248	10.998
642.441	10.55513
642.633	11.99942
642.826	12.23983
643.018	12.96758
643.211	14.23196
643.403	14.08167
643.596	14.12499
643.788	13.2586
643.981	10.91231
644.173	12.22259
644.366	10.70029
644.558	8.89187
644.751	12.26282
644.943	9.44347
645.135	13.50394
645.328	13.72124
645.52	12.20809
645.712	12.895
645.905	15.63734
646.097	9.75859
646.289	12.07098
646.482	14.58065
646.674	10.30015
646.866	13.1324
647.058	12.29888
647.251	9.7039
647.443	10.65249
647.635	10.9533
647.827	9.92765
648.019	9.96513
648.211	11.15408
648.404	11.6798
648.596	14.03345
648.788	12.13357
648.98	11.55733
649.172	12.40003
649.364	12.14771
649.556	9.45698
649.748	15.47357
649.94	10.50313
650.132	12.66862
650.324	10.51936
650.516	10.47324
650.708	13.25973
650.9	9.75445
651.092	10.97645
651.284	9.70755
651.476	9.99329
651.667	12.69279
651.859	14.03604
652.051	11.27733
652.243	12.14682
652.435	11.20997
652.627	12.44476
652.818	12.45114
653.01	9.43415
653.202	10.7692
653.394	11.00319
653.585	12.30625
653.777	18.33117
653.969	14.43753
654.16	13.62144
654.352	10.51774
654.544	11.69919
654.735	13.63582
654.927	11.93887
655.118	14.34356
655.31	13.27648
655.502	13.88977
655.693	11.69364
655.885	12.58839
656.076	14.26775
656.268	12.5598
656.459	14.36436
656.651	14.10908
656.842	11.30606
657.034	10.72953
657.225	13.39326
657.416	14.32198
657.608	14.22375
657.799	12.45449
657.99	14.41206
658.182	11.11029
658.373	11.02749
658.564	13.99545
658.756	12.71799
658.947	11.76324
659.138	10.89368
659.33	11.39253
659.521	11.03526
659.712	12.18065
659.903	11.85244
660.094	11.44637
660.286	9.79504
660.477	15.00144
660.668	13.26511
660.859	11.98552
661.05	10.03164
661.241	12.83659
661.432	12.57935
661.623	11.93153
661.814	11.40739
662.006	10.09861
662.197	12.67754
662.388	14.23632
662.579	12.89444
662.77	14.25933
662.96	16.94214
663.151	14.22188
663.342	9.60678
663.533	13.39043
663.724	12.42465
663.915	15.59111
664.106	12.95055
664.297	16.12158
664.488	13.67618
664.678	11.38112
664.869	14.02868
665.06	13.96013
665.251	12.92156
665.442	13.66705
665.632	11.06742
665.823	16.34338
666.014	7.82157
666.204	14.19694
666.395	15.1203
666.586	17.06586
666.776	14.29947
666.967	16.44522
667.158	12.5357
667.348	15.694
667.539	11.37497
667.729	14.41397
667.92	12.06626
668.111	14.86652
668.301	14.50097
668.492	12.78226
668.682	13.36945
668.873	12.97566
669.063	10.91049
669.253	13.75169
669.444	15.74922
669.634	13.25827
669.825	16.26408
670.015	14.96607
670.206	11.92228
670.396	17.04385
670.586	12.60695
670.777	14.14203
670.967	9.5123
671.157	12.77359
671.347	12.31209
671.538	16.2894
671.728	14.4104
671.918	17.20733
672.108	15.48576
672.299	13.02716
672.489	13.96523
672.679	12.16819
672.869	14.20358
673.059	18.3631
673.249	14.32606
673.44	11.51906
673.63	12.8255
673.82	15.57608
674.01	11.90622
674.2	14.04825
674.39	18.8455
674.58	15.12454
674.77	13.85417
674.96	12.8952
675.15	21.73782
675.34	16.11536
675.53	13.68815
675.72	12.60346
675.91	10.50431
676.099	17.5661
676.289	18.78167
676.479	16.06191
676.669	13.00482
676.859	14.71375
677.049	12.48163
677.238	13.79692
677.428	17.31353
677.618	15.06988
677.808	18.20143
677.997	15.07601
678.187	11.98766
678.377	14.13588
678.567	12.88935
678.756	13.0741
678.946	14.18867
679.136	11.38111
679.325	13.00751
679.515	12.48818
679.704	11.98949
679.894	15.76795
680.084	14.8827
680.273	16.38867
680.463	12.4648
680.652	12.63328
680.842	13.88418
681.031	15.95334
681.221	12.82747
681.41	14.97252
681.6	13.72051
681.789	15.54964
681.978	16.80396
682.168	15.22279
682.357	14.32403
682.547	15.19475
682.736	14.88961
682.925	17.16617
683.115	16.94199
683.304	16.07261
683.493	14.85398
683.682	15.70606
683.872	15.46883
684.061	17.01405
684.25	15.86612
684.439	20.18492
684.629	17.15689
684.818	22.07454
685.007	14.98329
685.196	14.24604
685.385	19.49325
685.574	15.87345
685.763	16.00636
685.952	15.86137
686.142	12.09577
686.331	18.32175
686.52	12.08832
686.709	20.40821
686.898	19.46473
687.087	16.73535
687.276	19.14787
687.465	18.72641
687.654	14.49102
687.842	19.1829
688.031	13.33001
688.22	18.89193
688.409	16.14181
688.598	16.16394
688.787	21.22406
688.976	16.09454
689.165	20.7099
689.353	14.98622
689.542	17.21886
689.731	18.24595
689.92	21.44652
690.108	17.79816
690.297	14.97775
690.486	16.16906
690.675	17.2211
690.863	19.76632
691.052	19.38974
691.241	16.60111
691.429	17.16537
691.618	19.88959
691.806	13.58817
691.995	15.69173
692.184	16.18432
692.372	15.32363
692.561	16.63573
692.749	17.57376
692.938	24.80301
693.126	17.91235
693.315	16.34748
693.503	18.48779
693.692	18.65235
693.88	19.09631
694.068	22.1366
694.257	17.39874
694.445	18.53454
694.634	12.198
694.822	18.93968
695.01	19.97706
695.199	22.56286
695.387	20.63012
695.575	19.97414
695.763	16.36148
695.952	15.90597
696.14	13.59618
696.328	15.57442
696.516	17.14121
696.705	17.69812
696.893	17.084
697.081	12.60765
697.269	19.08466
697.457	14.24239
697.645	13.58417
697.833	18.72026
698.021	14.82616
698.21	15.42449
698.398	15.99904
698.586	13.97869
698.774	13.1734
698.962	16.19135
699.15	14.02991
699.338	12.70224
699.526	17.45608
699.714	14.83795
699.901	14.90551
700.089	18.14404
700.277	14.85397
700.465	16.27878
700.653	18.44478
700.841	17.05363
701.029	14.73478
701.217	20.79048
701.404	17.02573
701.592	20.79126
701.78	23.3791
701.968	17.26262
702.155	16.88487
702.343	14.2247
702.531	20.97535
702.718	18.08443
702.906	15.82637
703.094	16.31215
703.281	21.26827
703.469	16.68765
703.657	21.14879
703.844	27.13487
704.032	23.78396
704.219	17.29365
704.407	20.05552
704.595	22.44808
704.782	19.27221
704.97	17.92672
705.157	18.05684
705.345	24.25381
705.532	29.53216
705.719	21.66256
705.907	24.2999
706.094	21.3809
706.282	27.48996
706.469	21.31873
706.656	22.49
706.844	21.12228
707.031	25.82949
707.218	24.22278
707.406	27.93413
707.593	25.3486
707.78	25.50345
707.968	23.5409
708.155	21.2203
708.342	26.27509
708.529	26.01003
708.716	24.90886
708.904	29.13182
709.091	25.46046
709.278	20.69846
709.465	29.9358
709.652	28.22806
709.839	27.85232
710.026	23.76117
710.213	18.58399
710.4	23.42866
710.587	24.69215
710.774	26.75087
710.961	26.9729
711.148	23.5396
711.335	25.89372
711.522	23.12007
711.709	25.20336
711.896	29.40047
712.083	26.82683
712.27	20.97271
712.457	24.25641
712.644	18.72709
712.831	30.70854
713.017	24.59658
713.204	26.23689
713.391	21.07378
713.578	26.20917
713.765	27.84764
713.951	24.55134
714.138	32.74373
714.325	23.15282
714.512	22.03972
714.698	19.35221
714.885	26.55984
715.072	21.66646
715.258	21.16312
715.445	19.3545
715.631	25.05287
715.818	12.91181
716.005	19.06169
716.191	23.35659
716.378	19.47535
716.564	23.30837
716.751	17.21777
716.937	19.53924
717.124	23.70749
717.31	18.25888
717.497	28.24314
717.683	18.37746
717.869	28.64944
718.056	19.37332
718.242	22.87033
718.429	20.26728
718.615	17.32551
718.801	20.68659
718.988	24.76823
719.174	23.27224
719.36	19.30578
719.547	26.0316
719.733	22.63397
719.919	21.68778
720.105	22.9488
720.291	20.65506
720.478	22.33464
720.664	20.80673
720.85	19.57216
721.036	32.14438
721.222	28.43158
721.408	21.29629
721.595	28.16854
721.781	27.82275
721.967	25.72161
722.153	28.45474
722.339	23.36098
722.525	23.47494
722.711	18.0278
722.897	17.32862
723.083	20.21017
723.269	25.66614
723.455	33.52934
723.641	39.20772
723.827	22.49062
724.012	23.83571
724.198	21.38125
724.384	27.46052
724.57	23.08718
724.756	17.10121
724.942	14.53818
725.127	26.80155
725.313	27.64104
725.499	26.92796
725.685	29.91136
725.87	23.73637
726.056	19.23052
726.242	27.02756
726.428	16.14727
726.613	25.8815
726.799	20.59439
726.985	18.11331
727.17	16.53536
727.356	30.47133
727.541	19.47047
727.727	21.72188
727.913	25.89929
728.098	20.71641
728.284	25.34028
728.469	17.9252
728.655	19.51942
728.84	27.15731
729.026	25.86758
729.211	25.79353
729.397	24.18646
729.582	25.72884
729.767	22.33654
729.953	24.49611
730.138	28.70743
730.323	13.62421
730.509	18.97793
730.694	29.87746
730.879	25.49541
731.065	24.37146
731.25	33.5172
731.435	25.39654
731.621	17.18589
731.806	20.32155
731.991	23.62874
732.176	17.76211
732.361	29.54986
732.547	24.13758
732.732	16.99888
732.917	33.08054
733.102	18.51691
733.287	20.49041
733.472	22.45713
733.657	21.62542
733.842	17.62528
734.027	20.60879
734.212	22.37166
734.397	20.63906
734.582	23.28492
734.767	27.73403
734.952	29.62425
735.137	12.83847
735.322	29.90104
735.507	25.28127
735.692	23.95825
735.877	33.07058
736.062	31.0982
736.247	25.28142
736.431	23.39895
736.616	28.06306
736.801	25.04275
736.986	23.6286
737.171	19.25387
737.355	17.72411
737.54	30.21574
737.725	23.88817
737.909	36.65684
738.094	21.75368
738.279	26.91009
738.463	22.55894
738.648	27.08687
738.833	25.50854
739.017	34.34077
739.202	22.48337
739.386	22.17655
739.571	19.8459
739.756	28.04666
739.94	23.82386
740.125	26.52158
740.309	21.10784
740.494	28.36619
740.678	25.12231
740.863	26.38964
741.047	25.04642
741.231	31.65267
741.416	21.55811
741.6	32.00664
741.785	21.33239
741.969	28.21509
742.153	31.44092
742.338	15.28733
742.522	23.89649
742.706	28.66507
742.89	19.77713
743.075	25.33841
743.259	30.96477
743.443	30.15127
743.627	31.3577
743.812	36.09025
743.996	17.37651
744.18	24.30191
744.364	23.4681
744.548	37.59692
744.732	24.04236
744.916	29.3427
745.1	27.4179
745.285	23.51057
745.469	27.24309
745.653	33.5608
745.837	19.46347
746.021	37.5313
746.205	30.38827
746.389	25.77883
746.573	23.8666
746.757	33.42359
746.94	24.06228
747.124	31.73259
747.308	19.88565
747.492	31.98363
747.676	19.84772
747.86	39.52712
748.044	23.45098
748.227	16.88349
748.411	47.84132
748.595	25.41922
748.779	21.04191
748.963	27.9497
749.146	26.33082
749.33	21.2441
749.514	21.09336
749.697	31.9297
749.881	21.99263
750.065	20.59334
750.248	26.18272
750.432	38.80815
750.616	26.70602
750.799	19.56807
750.983	39.51396
751.166	38.31299
751.35	17.85448
751.533	29.96062
751.717	35.50168
751.9	33.98928
752.084	24.61266
752.267	21.50199
752.451	21.4281
752.634	27.08951
752.818	29.8349
753.001	30.3837
753.184	32.86913
753.368	27.77788
753.551	9.59571
753.734	22.03142
753.918	39.88808
754.101	23.17472
754.284	29.52435
754.467	23.55268
754.651	22.91199
754.834	22.30665
755.017	32.34406
755.2	33.23716
755.384	20.89036
755.567	29.67206
755.75	30.93636
755.933	24.6198
756.116	30.80542
756.299	23.47057
756.482	21.43183
756.665	29.18017
756.848	25.32074
757.032	28.98748
757.215	18.32315
757.398	22.32291
757.581	21.67391
757.764	43.83293
757.947	26.22711
758.129	31.86977
758.312	12.31947
758.495	24.89999
758.678	25.79332
758.861	23.82404
759.044	37.47406
759.227	20.86097
759.41	22.26937
759.592	31.35328
759.775	24.8709
759.958	31.37045
760.141	19.94212
760.324	41.1901
760.506	35.88207
760.689	30.74068
760.872	40.47391
761.054	29.30102
761.237	25.48499
761.42	28.54274
761.602	31.12667
761.785	28.69425
761.968	34.76125
762.15	37.75491
762.333	25.44969
762.515	28.83616
762.698	25.09743
762.88	32.83864
763.063	29.24743
763.245	33.55233
763.428	21.61597
763.61	24.20727
763.793	20.17557
763.975	28.06471
764.158	24.7903
764.34	23.40462
764.522	21.75163
764.705	25.26278
764.887	35.44946
765.069	18.12812
765.252	29.69798
765.434	30.87444
765.616	27.27523
765.799	21.95825
765.981	30.93998
766.163	23.05304
766.345	35.08091
766.528	23.40354
766.71	15.29965
766.892	27.72581
767.074	35.54371
767.256	24.55677
767.438	38.65872
767.62	29.27874
767.802	43.22201
767.985	32.01203
768.167	38.9446
768.349	23.41894
768.531	31.54151
768.713	29.19196
768.895	32.38947
769.077	30.66182
769.259	46.70848
769.441	62.18482
769.623	32.70778
769.804	38.08316
769.986	36.554
770.168	42.06912
770.35	52.25456
770.532	40.82162
770.714	44.73767
770.896	43.41327
771.077	19.7553
771.259	45.52442
771.441	39.55625
771.623	49.34967
771.804	57.45213
771.986	22.18456
772.168	31.44916
772.35	43.20894
772.531	62.66474
772.713	39.53411
772.894	50.71871
773.076	37.35368
773.258	33.56383
773.439	52.71498
773.621	56.77491
773.802	27.87418
773.984	32.5035
774.166	40.72751
774.347	52.59258
774.529	49.10459
774.71	19.14908
774.891	36.64294
775.073	33.55602
775.254	50.30597
775.436	31.01081
775.617	60.56125
775.799	33.7466
775.98	49.07331
776.161	58.21277
776.343	58.27963
776.524	36.65118
776.705	35.58071
776.886	22.55921
777.068	41.78046
777.249	86.55351
777.43	60.13457
777.611	26.01744
777.793	34.78016
777.974	58.13591
778.155	32.32889
778.336	28.3541
778.517	66.26975
778.698	29.35674
778.879	20.85569
779.061	13.15437
779.242	43.63963
779.423	42.98411
779.604	32.75194
779.785	35.34399
779.966	39.59898
780.147	49.56672
780.328	49.46989
780.509	67.51503
780.69	50.14044
780.871	32.73693
781.051	22.87924
781.232	41.85989
781.413	39.35953
781.594	34.74191
781.775	35.72942
781.956	30.87425
782.137	18.3593
782.317	33.31709
782.498	39.20262
782.679	39.93289
782.86	40.75277
783.04	31.5946
783.221	41.15041
783.402	61.53281
783.583	38.53558
783.763	48.7805
783.944	32.88814
784.124	25.6953
784.305	59.1085
784.486	47.62645
784.666	38.09307
784.847	24.05111
785.027	81.37568
785.208	32.63353
785.388	31.87861
785.569	31.65428
785.749	35.62531
785.93	32.56043
786.11	24.83262
786.291	45.46499
786.471	40.53007
786.652	48.672
786.832	36.9763
787.012	42.22516
787.193	27.3231
787.373	40.50816
787.553	33.60278
787.734	41.52911
787.914	35.06934
788.094	49.85697
788.275	42.83259
788.455	34.68507
788.635	27.03111
788.815	42.13083
788.995	29.06993
789.176	22.8629
789.356	30.6671
789.536	36.29709
789.716	42.96164
789.896	31.26813
790.076	33.20328
790.256	43.25047
790.436	18.44874
790.616	28.03899
790.796	41.18971
790.976	34.84911
791.156	30.53157
791.336	45.48303
791.516	42.69838
791.696	36.37524
791.876	25.16858
792.056	40.97359
792.236	49.18776
792.416	47.51704
792.596	42.90768
792.776	42.6681
792.956	46.54363
793.135	60.49954
793.315	27.69319
793.495	50.82711
793.675	47.88388
793.854	47.06981
794.034	50.27976
794.214	26.60202
794.394	46.61927
794.573	52.42464
794.753	40.66973
794.933	31.41202
795.112	40.07646
795.292	50.71592
795.472	60.07029
795.651	25.5727
795.831	38.31653
796.01	36.03653
796.19	35.12515
796.369	38.57262
796.549	43.0991
796.728	35.57431
796.908	25.02278
797.087	27.77799
797.267	35.91255
797.446	27.88683
797.626	43.63616
797.805	41.9132
797.984	30.1411
798.164	45.32632
798.343	30.2139
798.522	41.32309
798.702	40.55354
798.881	26.51127
799.06	34.83907
799.239	21.82764
799.419	29.15417
799.598	60.25104
799.777	44.67033
799.956	51.16147
800.136	36.14169
800.315	29.74737
800.494	43.00453
800.673	50.98874
800.852	47.76255
801.031	51.4635
801.21	44.84885
801.389	34.44163
801.568	40.28644
801.747	60.9536
801.926	36.88962
802.105	54.68264
802.284	34.30554
802.463	57.8841
802.642	42.5482
802.821	40.07395
803	57.22367
803.179	50.58837
803.358	50.60486
803.537	31.17983
803.716	37.51029
803.895	32.50739
804.073	37.74677
804.252	30.86409
804.431	44.17212
804.61	37.02003
804.789	48.16559
804.967	33.31186
805.146	34.07818
805.325	65.99193
805.503	44.42686
805.682	24.97087
805.861	81.13827
806.039	55.34997
806.218	33.24048
806.397	40.21427
806.575	39.26153
806.754	42.96707
806.932	27.77325
807.111	52.24212
807.289	49.44918
807.468	41.00946
807.646	51.32813
807.825	45.54367
808.003	42.53769
808.182	50.23005
808.36	40.89236
808.539	30.75595
808.717	58.4142
808.895	31.05795
809.074	43.26667
809.252	38.15256
809.43	46.68811
809.609	54.49865
809.787	58.4385
809.965	38.29401
810.144	39.67907
810.322	39.34297
810.5	46.6904
810.678	37.27301
810.856	69.6955
811.035	53.24082
811.213	49.81353
811.391	57.88625
811.569	44.55529
811.747	86.66189
811.925	54.2505
812.103	31.77019
812.281	40.11005
812.459	63.7758
812.637	62.08329
812.816	52.60556
812.994	70.42458
813.171	59.03809
813.349	47.96546
813.527	52.77361
813.705	58.96068
813.883	76.40991
814.061	51.89705
814.239	63.74316
814.417	72.83939
814.595	49.03848
814.773	46.78829
814.95	44.23386
815.128	48.16416
815.306	44.37266
815.484	41.04554
815.662	29.58551
815.839	29.2957
816.017	35.8856
816.195	55.07506
816.372	38.2888
816.55	52.03543
816.728	63.40218
816.905	41.04014
817.083	66.08964
817.261	43.35361
817.438	86.22905
817.616	64.86858
817.793	36.43397
817.971	51.75718
818.148	52.11176
818.326	60.03144
818.503	46.09932
818.681	65.70798
818.858	37.93775
819.036	42.6284
819.213	46.87117
819.391	35.27475
819.568	36.37884
819.745	31.1469
819.923	51.42687
820.1	40.01369
820.277	33.31129
820.455	38.54423
820.632	41.59345
820.809	44.50043
820.986	30.14956
821.164	26.12777
821.341	24.50058
821.518	34.17805
821.695	26.22208
821.872	24.76952
822.05	22.04063
822.227	19.54073
822.404	20.37558
822.581	22.84565
822.758	20.47806
822.935	20.73832
823.112	22.4812
823.289	20.01419
823.466	23.09093
823.643	22.12524
823.82	25.17463
823.997	23.10257
824.174	25.8372
824.351	32.22247
824.528	30.3262
824.705	27.66735
824.882	30.39406
825.059	35.99378
825.236	28.88926
825.412	29.78634
825.589	33.7271
825.766	45.42047
825.943	30.60364
826.12	35.14611
826.296	26.57935
826.473	31.76248
826.65	31.81994
826.827	35.45737
827.003	26.53078
827.18	28.92218
827.357	31.82883
827.533	27.86936
827.71	18.84553
827.887	25.63546
828.063	28.62633
828.24	24.61037
828.416	30.67465
828.593	26.82006
828.769	35.71274
828.946	35.52502
829.122	37.71029
829.299	35.969
829.475	25.91083
829.652	36.84594
829.828	54.78816
830.005	37.32622
830.181	48.57547
830.357	37.33387
830.534	49.97578
830.71	38.79548
830.886	48.70399
831.063	47.49141
831.239	60.44541
831.415	31.42256
831.592	62.52562
831.768	39.59648
831.944	35.74378
832.12	64.56149
832.296	61.02
832.473	51.2963
832.649	36.82166
832.825	51.82062
833.001	33.91576
833.177	45.63061
833.353	42.9422
833.529	26.65169
833.705	39.65008
833.881	27.59141
834.058	27.69526
834.234	29.32968
834.41	29.17961
834.586	23.88412
834.761	27.84682
834.937	30.03081
835.113	30.8388
835.289	27.50045
835.465	31.39429
835.641	29.68691
835.817	31.72766
835.993	48.88868
836.169	28.32129
836.344	41.43702
836.52	46.47171
836.696	41.10124
836.872	36.8639
837.048	87.74813
837.223	39.43709
837.399	65.1647
837.575	53.1514
837.75	48.43244
837.926	69.25922
838.102	99.21063
838.277	80.57962
838.453	108.59367
838.628	107.042
838.804	45.22194
838.98	91.16606
839.155	51.24715
839.331	69.46388
839.506	49.52289
839.682	51.40425
839.857	67.88033
840.033	79.35743
840.208	38.83662
840.384	25.1361
840.559	41.29122
840.734	62.58461
840.91	76.30333
841.085	49.28641
841.26	48.09227
841.436	44.8094
841.611	44.61875
841.786	63.24333
841.962	83.02111
842.137	53.03968
842.312	34.81184
842.487	47.5627
842.663	43.99827
842.838	49.22904
843.013	140.58085
843.188	72.88148
843.363	77.11969
843.538	118.23357
843.714	120.20551
843.889	122.48134
844.064	131.16932
844.239	105.06884
844.414	127.25696
844.589	82.99254
844.764	152.57302
844.939	150.30073
845.114	158.96732
845.289	158.64108
845.464	213.61031
845.639	142.66389
845.814	78.47159
845.989	84.06336
846.163	101.99459
846.338	107.7455
846.513	150.53316
846.688	97.67117
846.863	103.30232
847.038	91.52255
847.212	100.85571
847.387	107.2098
847.562	114.20725
847.737	141.49414
847.911	61.14046
848.086	61.16346
848.261	212.59969
848.435	95.2288
848.61	142.30471
848.785	76.86747
848.959	151.60264
849.134	199.80887
849.308	205.35216
849.483	113.10416
849.658	178.762
849.832	97.91944
850.007	82.10618
850.181	231.01326
850.356	90.97033
850.53	215.67453
850.705	72.68278
850.879	40.40288
851.053	102.928
851.228	93.97805
851.402	118.23771
851.577	156.95857
851.751	177.70944
851.925	120.49862
852.099	54.22749
852.274	82.464
852.448	108.25034
852.622	136.83411
852.797	109.38374
852.971	106.27624
853.145	117.28338
853.319	336.9111
853.493	167.90614
853.668	91.98229
853.842	200.10419
854.016	170.17988
854.19	188.49299
854.364	118.72472
854.538	137.33274
854.712	167.84692
854.886	110.62003
855.06	101.18315
855.234	48.69143
855.408	182.90498
855.582	156.92664
855.756	163.10645
855.93	201.80299
856.104	141.29821
856.278	154.5015
856.452	115.64472
856.626	157.41254
856.8	243.101
856.973	143.76651
857.147	133.22763
857.321	138.28419
857.495	163.71343
857.669	114.26784
857.842	101.30179
858.016	166.33207
858.19	92.8103
858.364	259.34972
858.537	103.3034
858.711	118.98718
858.885	104.64202
859.058	93.17225
859.232	52.58945
859.405	64.69124
859.579	158.89731
859.753	130.2933
859.926	91.51605
860.1	61.13541
860.273	121.81946
860.447	191.06689
860.62	106.79699
860.794	227.90853
860.967	133.80263
861.141	171.85759
861.314	238.41657
861.487	138.43883
861.661	186.77717
861.834	186.28426
862.008	167.56024
862.181	126.25016
862.354	126.99359
862.528	139.85379
862.701	98.65191
862.874	72.65524
863.047	110.06582
863.221	100.75651
863.394	57.76272
863.567	192.74952
863.74	48.07419
863.913	159.8055
864.087	135.51265
864.26	162.58205
864.433	112.32104
864.606	207.49037
864.779	119.3106
864.952	57.3694
865.125	94.4279
865.298	116.0949
865.471	116.17001
865.644	242.84852
865.817	193.52179
865.99	163.16125
866.163	181.6247
866.336	105.56925
866.509	116.83053
866.682	105.27468
866.855	175.9871
867.028	75.51064
867.2	151.81381
867.373	51.47743
867.546	127.33499
867.719	244.91501
867.892	152.55967
868.064	91.21471
868.237	139.90202
868.41	118.99304
868.583	79.09211
868.755	76.07171
868.928	122.35212
869.101	248.81473
869.273	188.10135
869.446	146.92593
869.619	175.16005
869.791	116.27801
869.964	178.84993
870.136	159.6352
870.309	130.53803
870.481	130.61369
870.654	64.34347
870.826	133.29145
870.999	105.63459
871.171	162.37305
871.344	104.27904
871.516	115.97741
871.689	91.14672
871.861	136.24709
872.033	91.33037
872.206	105.13352
872.378	163.18117
872.55	109.94112
872.723	69.71153
872.895	117.04422
873.067	175.31792
873.24	194.01897
873.412	100.63792
873.584	112.62435
873.756	107.51662
873.928	143.20887
874.101	136.31862
874.273	151.01714
874.445	55.76077
874.617	76.93076
874.789	131.38472
874.961	108.92613
875.133	144.79541
875.305	126.32828
875.477	86.50825
875.649	70.99743
875.821	83.86283
875.993	213.2032
876.165	86.90606
876.337	141.7264
876.509	114.60097
876.681	139.06449
876.853	134.23763
877.025	133.77757
877.197	87.88651
877.369	88.513
877.541	163.0261
877.712	50.31925
877.884	75.68847
878.056	155.23032
878.228	82.65924
878.4	145.28573
878.571	85.99937
878.743	58.67322
878.915	136.12638
879.086	79.40259
879.258	98.53608
879.43	90.40273
879.601	81.25591
879.773	87.73256
879.945	24.87887
880.116	40.28175
880.288	26.05645
880.459	29.26481
880.631	24.19348
880.802	29.03789
880.974	27.59648
881.145	20.95624
881.317	26.35891
881.488	21.61465
881.66	24.19543
881.831	22.5617
882.002	28.61787
882.174	22.86375
882.345	28.29222
882.517	18.73089
882.688	30.74927
882.859	28.11651
883.03	39.62626
883.202	38.25895
883.373	34.3087
883.544	34.48809
883.715	54.30591
883.887	45.47989
884.058	39.75955
884.229	55.66159
884.4	56.98548
884.571	62.54849
884.742	54.62847
884.914	59.4473
885.085	81.05525
885.256	95.92762
885.427	82.01427
885.598	94.18553
885.769	102.77097
885.94	95.86915
886.111	63.32411
886.282	111.37635
886.453	91.88388
886.624	65.22024
886.795	110.86062
886.966	95.98514
887.136	121.04443
887.307	79.00556
887.478	149.26705
887.649	130.1807
887.82	137.00639
887.991	104.95701
888.161	143.68416
888.332	143.46576
888.503	76.16204
888.674	192.27162
888.844	196.69692
889.015	159.48069
889.186	76.98062
889.356	184.98641
889.527	74.02224
889.698	322.4267
889.868	106.6658
890.039	135.68807
890.209	116.94613
890.38	170.03439
890.551	138.18115
890.721	201.80705
890.892	162.33684
891.062	116.68542
891.233	142.21666
891.403	102.60953
891.574	89.14415
891.744	109.97816
891.914	142.92198
892.085	129.49807
892.255	43.45783
892.425	197.46184
892.596	159.04561
892.766	140.00806
892.936	190.18791
893.107	165.54714
893.277	96.13787
893.447	70.6579
893.618	55.49593
893.788	104.96956
893.958	62.23929
894.128	62.60093
894.298	68.77961
894.468	95.88024
894.639	45.32476
894.809	33.73622
894.979	51.02983
895.149	59.352
895.319	49.40109
895.489	66.79294
895.659	78.88636
895.829	57.32112
895.999	59.66274
896.169	44.8072
896.339	53.55795
896.509	109.60032
896.679	122.21276
896.849	117.23027
897.019	163.08756
897.189	129.09282
897.358	112.46146
897.528	165.50552
897.698	60.80374
897.868	152.06005
898.038	258.16909
898.208	235.27372
898.377	75.98239
898.547	240.18609
898.717	388.03913
898.886	147.20501
899.056	234.31257
899.226	354.62782
899.395	209.0437
899.565	272.77698
899.735	172.5063
899.904	288.43802
900.074	249.1372
900.244	131.127
900.413	448.85195
900.583	112.37506
900.752	169.96229
900.922	272.70143
901.091	41.65779
901.261	238.50739
901.43	224.99097
901.599	229.06859
901.769	503.76885
901.938	266.80617
902.108	251.95374
902.277	328.7678
902.446	92.61889
902.616	102.98682
902.785	155.6389
902.954	259.83927
903.124	175.26198
903.293	145.31482
903.462	82.48541
903.631	114.37286
903.801	80.90514
903.97	46.46519
904.139	77.41106
904.308	57.20583
904.477	48.70745
904.646	30.10582
904.816	45.64694
904.985	61.91323
905.154	97.38316
