Data from WindowProjectSample_Transmission__50__00050__01934805344249444.txt Node

Date: Mon May 05 18:08:59 EDT 2025
User: jessi
Spectrometer: SR400872
Trigger mode: 0
Integration Time (sec): 5.000010E-1
Scans to average: 20
Electric dark correction enabled: true
Nonlinearity correction enabled: true
Boxcar width: 0
XAxis mode: Wavelengths
Number of Pixels in Spectrum: 3648
>>>>>Begin Spectral Data<<<<<
184.909	21064.97902
185.132	-5080.51481
185.355	-3024.61287
185.578	-18319.99101
185.801	1646.72042
186.024	10331.97934
186.247	-1857.69727
186.47	1143.4494
186.693	298.64678
186.916	226.31445
187.139	-3737.46937
187.362	3541.28832
187.585	3968.41163
187.808	3499.49424
188.031	-5.81849
188.254	-55286.9129
188.476	-654.86954
188.699	6265.84998
188.922	534.56728
189.145	-15443.66785
189.368	-697.22513
189.591	-1406.33213
189.813	3063.73696
190.036	-48894.30546
190.259	-918.33947
190.482	-4351.26117
190.705	7373.43093
190.927	-2456.61504
191.15	13531.13595
191.373	3380.87061
191.595	-9078.55552
191.818	-4151.47289
192.041	-6685.43873
192.263	-3298.59265
192.486	-1045.42798
192.709	-3992.33245
192.931	8187.06733
193.154	-28772.69287
193.377	-2882.87613
193.599	-2577.04344
193.822	-9687.133
194.044	-1991.22227
194.267	1198.55615
194.489	191.92516
194.712	-42158.65167
194.934	-32739.2887
195.157	1188.4798
195.379	1327.18229
195.602	-7561.05234
195.824	-1338.60234
196.047	-8421.81895
196.269	2715.07572
196.492	-6645.8528
196.714	28773.86812
196.936	-8696.35541
197.159	-1190.91479
197.381	1103.93763
197.604	506.6447
197.826	12056.83713
198.048	-10813.92847
198.271	-2850.49155
198.493	7465.53613
198.715	2347.87777
198.938	-521.55242
199.16	7254.77213
199.382	-102167.19668
199.604	2760.78068
199.827	-1024.63809
200.049	-3020.07718
200.271	14352.51147
200.493	1254.50953
200.715	-38801.87993
200.938	-5947.67383
201.16	-4402.18809
201.382	21743.43206
201.604	2333.61034
201.826	2298.0597
202.048	-2027.35009
202.27	-1980.00618
202.492	-37184.264
202.715	3037.58329
202.937	-4489.36044
203.159	-6325.59388
203.381	1599.78513
203.603	7253.3944
203.825	6385.61625
204.047	2256.76451
204.269	-2871.97214
204.491	2209.51069
204.713	6045.3829
204.935	-464158.6203
205.156	1193.49922
205.378	-3085.79574
205.6	1630.66268
205.822	152635.76191
206.044	-975.04091
206.266	1639.57944
206.488	4114.4563
206.71	-5047.15507
206.932	1139.61258
207.153	12108.81017
207.375	-6661.09676
207.597	-37506.72032
207.819	-2934.68572
208.041	2374.39733
208.262	462.229
208.484	756.373
208.706	-757.11488
208.927	-835.54481
209.149	586.6209
209.371	-2954.06663
209.593	-254.70522
209.814	-913.74881
210.036	540.38085
210.258	-686.35269
210.479	1789.7309
210.701	1688.10136
210.922	3372.40533
211.144	-3774.76783
211.366	2064.54213
211.587	7568.17423
211.809	-8167.94031
212.03	2359.36315
212.252	518.71457
212.473	2017.12645
212.695	-6246.54703
212.916	2908.05863
213.138	-765.86508
213.359	3795.50648
213.581	5016.67314
213.802	-859.10897
214.024	1130.97541
214.245	1934.35378
214.466	2713.33853
214.688	-3175.45675
214.909	-1192.85374
215.131	-1809.03958
215.352	-3110.78583
215.573	14990.44033
215.795	5092.47355
216.016	5456.49694
216.237	918.2291
216.459	3676.99418
216.68	1779.31344
216.901	4940.84802
217.122	-3108.08248
217.344	-11740.16916
217.565	3443.03021
217.786	8766.16677
218.007	17865.88491
218.228	-827.09653
218.45	6070.43767
218.671	692.0514
218.892	38195.88581
219.113	1611.40106
219.334	-306.9096
219.555	10226.05323
219.776	3165.44682
219.997	22941.6932
220.219	2909.03257
220.44	-11597.43448
220.661	466.90538
220.882	1512.66761
221.103	-1118.54038
221.324	2216.24763
221.545	2327.95006
221.766	-8600.12272
221.987	881.87574
222.208	1628.54948
222.429	4378.36835
222.65	283.10268
222.87	19903.9458
223.091	677.22628
223.312	595.57287
223.533	1354.63271
223.754	1531.52156
223.975	1318.71128
224.196	1981.57173
224.417	1281.7835
224.637	618.55327
224.858	75.32723
225.079	1097.29226
225.3	650.80144
225.521	3770.9963
225.741	477.74948
225.962	505.40707
226.183	140.8472
226.404	668.51126
226.624	419.75526
226.845	595.48833
227.066	400.11289
227.286	242.89515
227.507	131.8326
227.728	120.7889
227.948	238.66514
228.169	79.59588
228.389	86.52855
228.61	45.26533
228.831	65.36537
229.051	3.06561
229.272	39.72091
229.492	55.5201
229.713	12.98276
229.933	38.22139
230.154	33.38036
230.374	55.6522
230.595	37.91369
230.815	23.68575
231.036	37.78297
231.256	-6.93111
231.477	69.28482
231.697	38.77892
231.917	41.99556
232.138	54.40564
232.358	109.91336
232.579	101.65044
232.799	21.02899
233.019	100.61159
233.24	115.38957
233.46	35.54271
233.68	68.67478
233.901	41.35914
234.121	27.12952
234.341	13.02395
234.561	-4.02242
234.782	20.76595
235.002	67.24534
235.222	-3.66539
235.442	63.68206
235.662	33.50194
235.883	61.75102
236.103	52.02367
236.323	33.12396
236.543	28.48601
236.763	39.25747
236.983	42.01949
237.203	42.07251
237.423	64.14092
237.643	87.16548
237.864	73.19829
238.084	19.44668
238.304	26.57704
238.524	45.00451
238.744	39.2795
238.964	73.26775
239.184	61.9701
239.404	62.98055
239.624	33.1959
239.843	61.49991
240.063	38.072
240.283	22.65198
240.503	26.17728
240.723	25.39079
240.943	14.96209
241.163	20.22133
241.383	15.17209
241.603	7.24593
241.822	9.62772
242.042	6.18752
242.262	8.47395
242.482	9.57683
242.702	10.90303
242.921	2.8816
243.141	6.38161
243.361	6.44772
243.581	9.38253
243.8	7.4154
244.02	5.41842
244.24	9.32376
244.459	8.95246
244.679	17.58745
244.899	11.33046
245.118	13.19306
245.338	11.67288
245.558	13.97674
245.777	8.79374
245.997	11.154
246.216	10.3057
246.436	6.34403
246.655	4.82385
246.875	3.05669
247.094	6.38412
247.314	2.18081
247.533	3.66577
247.753	4.29495
247.972	3.45518
248.192	1.20245
248.411	1.78982
248.631	3.3091
248.85	4.77393
249.07	3.86179
249.289	6.02025
249.508	5.14691
249.728	7.71266
249.947	7.31969
250.166	8.75234
250.386	4.47419
250.605	7.02145
250.824	11.55596
251.044	7.55974
251.263	28.74926
251.482	14.36231
251.701	11.76027
251.921	-0.01148
252.14	2.95706
252.359	3.96328
252.578	10.36989
252.798	3.37521
253.017	8.76369
253.236	4.50616
253.455	5.67559
253.674	10.24805
253.893	4.81796
254.112	7.9513
254.331	11.34486
254.551	8.71372
254.77	3.23529
254.989	13.92161
255.208	9.98816
255.427	14.89181
255.646	11.86472
255.865	21.50256
256.084	9.44087
256.303	11.26329
256.522	13.9401
256.741	2.96319
256.96	3.16766
257.179	8.26575
257.397	10.99643
257.616	5.51214
257.835	7.48639
258.054	15.77648
258.273	10.51033
258.492	11.15185
258.711	6.87316
258.93	3.11994
259.148	4.7024
259.367	4.56455
259.586	5.76855
259.805	2.49711
260.023	5.16361
260.242	3.85902
260.461	2.83005
260.68	1.2706
260.898	4.40098
261.117	1.36141
261.336	0.86212
261.554	3.53962
261.773	3.44601
261.992	0.77719
262.21	3.45978
262.429	3.77914
262.648	7.28052
262.866	8.40937
263.085	5.30653
263.303	4.94705
263.522	8.66431
263.74	9.09165
263.959	15.45389
264.178	7.21066
264.396	6.31652
264.615	5.14643
264.833	10.32781
265.051	8.70348
265.27	10.76932
265.488	10.72943
265.707	6.24927
265.925	10.99351
266.144	4.48213
266.362	5.76953
266.58	5.60054
266.799	5.30535
267.017	6.18157
267.235	5.43395
267.454	3.35823
267.672	1.71964
267.89	3.93355
268.109	4.51663
268.327	4.4832
268.545	1.03869
268.763	3.99139
268.982	1.46546
269.2	4.37748
269.418	3.23169
269.636	1.80976
269.854	4.89951
270.073	3.32077
270.291	2.16812
270.509	1.70275
270.727	4.27328
270.945	7.31059
271.163	7.10914
271.381	1.53545
271.599	3.04786
271.817	5.46224
272.036	1.59115
272.254	3.32535
272.472	2.24804
272.69	2.42828
272.908	2.45933
273.126	4.60948
273.344	5.39374
273.562	1.68411
273.779	2.60358
273.997	3.86747
274.215	4.18344
274.433	2.87433
274.651	4.43472
274.869	4.67131
275.087	2.86146
275.305	4.26982
275.523	2.55266
275.74	3.06348
275.958	5.37702
276.176	8.34119
276.394	2.57572
276.612	3.25698
276.829	3.43268
277.047	2.76129
277.265	2.97267
277.483	3.73327
277.7	4.28622
277.918	3.4771
278.136	6.23745
278.353	2.92131
278.571	1.73377
278.789	4.47364
279.006	0.88283
279.224	2.9768
279.442	5.20484
279.659	3.55769
279.877	2.61996
280.094	5.82832
280.312	1.13367
280.529	3.4618
280.747	0.93497
280.964	2.53224
281.182	6.16216
281.399	2.73645
281.617	3.74551
281.834	2.43194
282.052	2.03996
282.269	3.17983
282.487	2.35625
282.704	2.11489
282.921	2.23906
283.139	3.35939
283.356	4.03554
283.574	3.74704
283.791	1.84292
284.008	5.76255
284.226	2.9677
284.443	3.34842
284.66	4.19236
284.877	3.47924
285.095	2.09001
285.312	1.49428
285.529	0.85442
285.746	0.79875
285.964	2.02459
286.181	1.52371
286.398	1.94287
286.615	2.66804
286.832	2.5894
287.05	0.5423
287.267	1.8325
287.484	1.69096
287.701	2.62573
287.918	2.61661
288.135	2.75067
288.352	1.32671
288.569	1.56707
288.786	2.41849
289.003	2.06216
289.22	3.17871
289.437	1.53821
289.654	2.96159
289.871	3.07966
290.088	2.96227
290.305	2.34701
290.522	1.7648
290.739	2.14553
290.956	3.09711
291.173	3.4981
291.39	3.41201
291.607	2.43723
291.824	1.71882
292.04	1.25972
292.257	2.93486
292.474	3.32102
292.691	1.98219
292.908	1.0683
293.125	1.66983
293.341	1.10165
293.558	5.00524
293.775	1.95366
293.992	2.09323
294.208	0.79246
294.425	1.28874
294.642	1.88066
294.858	3.19242
295.075	0.5882
295.292	1.96937
295.508	2.39868
295.725	4.05639
295.942	1.67164
296.158	1.21967
296.375	2.02604
296.591	1.55092
296.808	1.68518
297.024	1.93742
297.241	2.19165
297.458	2.37854
297.674	0.10761
297.891	1.77545
298.107	1.37937
298.323	1.11152
298.54	3.0824
298.756	1.29119
298.973	0.68277
299.189	3.04113
299.406	1.19573
299.622	2.86269
299.838	2.7779
300.055	2.60456
300.271	0.60436
300.487	0.92851
300.704	1.27153
300.92	0.71685
301.136	4.24713
301.353	2.70845
301.569	1.75207
301.785	2.20119
302.001	2.63481
302.218	2.08955
302.434	2.216
302.65	0.66777
302.866	1.571
303.083	3.92617
303.299	3.67473
303.515	2.04473
303.731	2.08885
303.947	0.59315
304.163	1.22943
304.379	2.0315
304.595	2.41024
304.812	1.3382
305.028	1.26337
305.244	1.7572
305.46	2.74198
305.676	2.64403
305.892	3.20405
306.108	2.29886
306.324	1.47002
306.54	3.59013
306.756	2.62573
306.972	2.39414
307.187	1.65334
307.403	3.30021
307.619	1.58837
307.835	2.99918
308.051	3.53961
308.267	0.95242
308.483	2.93243
308.699	2.33647
308.914	1.95477
309.13	1.6751
309.346	0.53155
309.562	1.02546
309.778	0.71031
309.993	2.5116
310.209	1.82249
310.425	0.97261
310.641	1.64201
310.856	0.98932
311.072	0.92302
311.288	1.76187
311.503	1.88401
311.719	0.35588
311.935	0.21473
312.15	2.22773
312.366	1.76132
312.581	2.22152
312.797	1.82956
313.013	2.62125
313.228	1.19179
313.444	1.84766
313.659	1.29498
313.875	2.27976
314.09	1.76406
314.306	3.09412
314.521	2.66001
314.737	2.54788
314.952	1.89545
315.168	1.736
315.383	2.36327
315.599	1.68868
315.814	1.66948
316.029	2.63613
316.245	0.72973
316.46	0.55464
316.675	3.08389
316.891	3.55938
317.106	4.59932
317.321	2.16892
317.537	2.47933
317.752	2.73558
317.967	2.81122
318.183	1.12029
318.398	1.60784
318.613	2.62858
318.828	3.19175
319.043	2.72831
319.259	1.79363
319.474	2.14438
319.689	3.07429
319.904	0.41852
320.119	2.54491
320.334	2.29813
320.549	1.66911
320.765	2.89224
320.98	2.32139
321.195	2.57424
321.41	1.89134
321.625	2.65854
321.84	3.67261
322.055	3.61078
322.27	1.55641
322.485	1.0547
322.7	2.27156
322.915	2.84621
323.13	1.13029
323.345	3.34432
323.56	2.78079
323.775	2.56804
323.989	2.35858
324.204	2.22937
324.419	2.91012
324.634	0.92765
324.849	1.88817
325.064	4.99524
325.279	2.77692
325.493	2.39798
325.708	2.80496
325.923	1.26641
326.138	1.46373
326.352	3.46335
326.567	2.85563
326.782	1.62733
326.997	1.31696
327.211	2.51653
327.426	2.30794
327.641	1.56997
327.855	0.56324
328.07	2.31792
328.285	3.51046
328.499	1.45525
328.714	2.24634
328.928	2.67081
329.143	1.82052
329.358	2.85047
329.572	2.84353
329.787	3.07037
330.001	4.2021
330.216	0.93337
330.43	3.70386
330.645	3.58455
330.859	2.86147
331.074	1.42378
331.288	2.21396
331.503	3.09362
331.717	1.08402
331.931	2.22679
332.146	2.11259
332.36	3.61523
332.575	2.4177
332.789	2.23211
333.003	2.05486
333.218	2.47521
333.432	1.47447
333.646	2.75192
333.86	3.40538
334.075	3.50945
334.289	1.59077
334.503	1.25909
334.717	2.3616
334.932	2.3743
335.146	3.29737
335.36	1.78852
335.574	2.64549
335.788	2.42632
336.003	2.91538
336.217	2.5615
336.431	2.50648
336.645	1.48946
336.859	1.01314
337.073	1.79586
337.287	2.2343
337.501	1.11928
337.715	2.2567
337.929	2.87789
338.143	1.01606
338.357	1.81803
338.571	1.24974
338.785	2.41011
338.999	1.67815
339.213	1.47123
339.427	0.74109
339.641	3.26026
339.855	1.83638
340.069	1.48407
340.283	2.76684
340.497	3.66158
340.711	2.36978
340.924	1.8016
341.138	1.03653
341.352	0.98583
341.566	2.22196
341.78	0.61311
341.993	1.50306
342.207	1.06598
342.421	2.2331
342.635	1.75032
342.848	1.54483
343.062	0.1716
343.276	1.27801
343.49	3.74642
343.703	1.44096
343.917	2.8908
344.131	2.80573
344.344	1.39887
344.558	1.70982
344.771	1.08428
344.985	3.40613
345.199	3.3051
345.412	2.10661
345.626	2.22713
345.839	0.65028
346.053	1.06724
346.266	1.05115
346.48	2.52093
346.693	2.15247
346.907	2.24919
347.12	1.1591
347.334	2.31377
347.547	2.06598
347.76	1.60217
347.974	2.87896
348.187	2.1394
348.401	1.49221
348.614	1.48934
348.827	1.62157
349.041	2.42557
349.254	0.57995
349.467	1.67486
349.681	0.88902
349.894	1.45073
350.107	2.94117
350.32	3.38054
350.534	0.75064
350.747	1.50968
350.96	1.25885
351.173	1.28948
351.386	1.65853
351.6	1.54283
351.813	1.42009
352.026	1.72726
352.239	0.79786
352.452	1.70417
352.665	2.5802
352.878	1.80593
353.092	3.54711
353.305	2.57435
353.518	2.14441
353.731	1.26103
353.944	2.79819
354.157	1.41962
354.37	1.20794
354.583	1.11174
354.796	0.60179
355.009	2.62746
355.222	2.15625
355.435	1.94547
355.647	2.63818
355.86	1.15012
356.073	1.91754
356.286	1.37564
356.499	2.32362
356.712	2.14531
356.925	2.22753
357.138	2.4113
357.35	1.07946
357.563	1.49499
357.776	1.80415
357.989	1.60916
358.201	2.10205
358.414	1.98099
358.627	2.89187
358.84	1.61874
359.052	0.8559
359.265	1.25251
359.478	2.59247
359.69	-0.05002
359.903	2.40954
360.116	2.45787
360.328	0.57697
360.541	2.45063
360.753	1.0181
360.966	1.37266
361.179	1.511
361.391	1.38333
361.604	1.14054
361.816	1.46109
362.029	1.24699
362.241	1.09106
362.454	1.32063
362.666	1.03708
362.879	1.88508
363.091	1.45097
363.304	1.22045
363.516	1.60166
363.728	1.00357
363.941	2.1407
364.153	1.51171
364.366	0.26953
364.578	1.00792
364.79	1.90472
365.003	1.68109
365.215	1.34265
365.427	2.19888
365.639	2.6044
365.852	1.84105
366.064	3.5159
366.276	1.55162
366.488	2.07126
366.701	1.56272
366.913	1.71888
367.125	1.6627
367.337	1.29841
367.549	1.45532
367.762	1.8658
367.974	1.89673
368.186	1.36529
368.398	2.48922
368.61	2.32628
368.822	2.33447
369.034	1.85094
369.246	2.34326
369.458	4.14672
369.67	1.23579
369.882	3.29912
370.094	0.63228
370.306	3.18044
370.518	1.75119
370.73	1.49688
370.942	1.45166
371.154	1.88062
371.366	1.6173
371.578	2.12685
371.79	1.51153
372.002	2.73113
372.214	3.39017
372.425	2.03858
372.637	3.09262
372.849	2.24343
373.061	0.65136
373.273	2.3561
373.484	2.31598
373.696	2.76752
373.908	0.70732
374.12	2.98024
374.331	2.30305
374.543	1.64609
374.755	1.54406
374.967	2.28116
375.178	2.84997
375.39	1.97415
375.602	2.35523
375.813	1.2549
376.025	1.46413
376.236	2.29472
376.448	2.4202
376.66	1.91622
376.871	2.00144
377.083	3.20256
377.294	3.2703
377.506	2.01769
377.717	3.25764
377.929	2.54501
378.14	1.93291
378.352	2.71086
378.563	2.69545
378.775	3.35619
378.986	1.86099
379.197	2.33431
379.409	1.98525
379.62	2.95703
379.832	2.84074
380.043	2.39811
380.254	2.57919
380.466	1.90318
380.677	4.65882
380.888	4.05811
381.1	4.37503
381.311	4.44509
381.522	2.79496
381.733	4.82751
381.945	2.75907
382.156	2.87961
382.367	2.41203
382.578	4.89191
382.789	4.72925
383.001	2.70049
383.212	4.00314
383.423	4.09909
383.634	3.84939
383.845	3.55837
384.056	2.90072
384.267	3.22439
384.478	3.17548
384.69	2.45865
384.901	3.46933
385.112	3.51179
385.323	4.50108
385.534	3.64934
385.745	3.61
385.956	3.64347
386.167	2.90254
386.378	3.78275
386.588	2.94149
386.799	3.03367
387.01	2.58667
387.221	4.12475
387.432	3.59376
387.643	4.93222
387.854	3.53949
388.065	3.61865
388.275	3.69699
388.486	3.48831
388.697	3.8328
388.908	3.56951
389.119	4.64686
389.329	4.94365
389.54	4.12282
389.751	4.26312
389.962	5.03494
390.172	4.29148
390.383	4.04395
390.594	3.90487
390.804	3.97288
391.015	4.04243
391.226	4.47171
391.436	4.87761
391.647	4.72816
391.858	4.99752
392.068	3.70362
392.279	4.03781
392.489	4.88682
392.7	5.48021
392.91	4.32307
393.121	4.40534
393.331	5.16274
393.542	5.69903
393.752	5.31632
393.963	5.37042
394.173	5.39827
394.384	5.54103
394.594	5.25862
394.804	4.67409
395.015	5.40931
395.225	5.7023
395.436	4.85296
395.646	5.69596
395.856	5.19797
396.067	4.77833
396.277	6.1803
396.487	5.88743
396.697	5.95275
396.908	6.03001
397.118	6.16563
397.328	6.01561
397.538	6.56307
397.749	5.42503
397.959	6.59418
398.169	6.42819
398.379	5.35247
398.589	6.48562
398.8	6.42888
399.01	6.3488
399.22	6.10727
399.43	7.78945
399.64	6.52783
399.85	6.91209
400.06	6.70724
400.27	6.05287
400.48	6.65067
400.69	7.60742
400.9	6.48568
401.11	6.20949
401.32	7.3248
401.53	6.54793
401.74	7.89977
401.95	7.37752
402.16	6.76609
402.37	7.291
402.58	7.00674
402.79	7.68769
403	8.04132
403.209	7.10602
403.419	8.29491
403.629	7.11583
403.839	8.38221
404.049	8.30753
404.258	7.59255
404.468	7.46851
404.678	8.142
404.888	8.68458
405.097	7.78061
405.307	8.00357
405.517	8.5239
405.727	8.39389
405.936	8.02424
406.146	8.36316
406.356	9.15146
406.565	8.30038
406.775	8.17834
406.984	8.03792
407.194	9.46104
407.404	8.4118
407.613	8.84435
407.823	8.97747
408.032	9.24477
408.242	9.30301
408.451	8.49061
408.661	8.66296
408.87	9.91875
409.08	8.34371
409.289	9.13911
409.499	9.13394
409.708	9.00889
409.918	7.80855
410.127	9.35282
410.336	10.02405
410.546	9.69263
410.755	9.02781
410.964	9.14715
411.174	8.77758
411.383	9.63442
411.592	9.57813
411.802	8.89195
412.011	9.75914
412.22	9.36678
412.429	10.59419
412.639	10.45754
412.848	10.2076
413.057	10.45693
413.266	10.26201
413.475	9.73914
413.685	10.10368
413.894	10.42441
414.103	10.49654
414.312	10.35556
414.521	9.7146
414.73	10.03745
414.939	11.37305
415.148	10.4819
415.357	10.36923
415.566	10.06316
415.776	9.97356
415.985	10.2143
416.194	10.84228
416.403	11.63298
416.611	9.82371
416.82	10.3152
417.029	10.83224
417.238	10.43314
417.447	10.43115
417.656	10.69323
417.865	10.47948
418.074	10.85502
418.283	10.95093
418.492	11.60888
418.7	11.35907
418.909	12.47365
419.118	11.59038
419.327	12.05944
419.536	12.01246
419.744	12.16864
419.953	13.46273
420.162	13.8214
420.371	13.29269
420.579	14.01767
420.788	14.87175
420.997	14.97207
421.205	15.45873
421.414	15.19791
421.623	15.33301
421.831	14.97685
422.04	15.4403
422.249	14.49647
422.457	14.84267
422.666	14.00329
422.874	14.76525
423.083	14.92049
423.291	14.85687
423.5	14.85673
423.708	15.36069
423.917	15.80666
424.125	15.39101
424.334	15.40231
424.542	16.96326
424.751	16.46933
424.959	16.00133
425.167	15.93453
425.376	15.84242
425.584	14.52215
425.793	14.25194
426.001	13.32194
426.209	13.23156
426.418	12.11285
426.626	11.70347
426.834	11.54329
427.042	11.91201
427.251	11.64772
427.459	12.37156
427.667	11.88005
427.875	11.24178
428.084	11.62037
428.292	12.52084
428.5	12.15293
428.708	11.33519
428.916	11.35265
429.124	11.99287
429.333	11.68374
429.541	11.76341
429.749	12.04194
429.957	11.91611
430.165	13.49809
430.373	11.18772
430.581	12.06555
430.789	12.76463
430.997	11.88707
431.205	11.54414
431.413	12.27739
431.621	11.85325
431.829	12.47976
432.037	12.06823
432.245	12.23815
432.453	12.36779
432.661	12.18688
432.869	13.3419
433.076	11.83842
433.284	12.34839
433.492	12.74133
433.7	12.94333
433.908	12.18233
434.116	12.4389
434.323	12.4118
434.531	12.277
434.739	12.60787
434.947	12.69055
435.154	12.72637
435.362	12.25713
435.57	12.13808
435.778	11.88279
435.985	12.39052
436.193	12.02786
436.401	13.01576
436.608	12.32853
436.816	12.03777
437.023	13.15199
437.231	13.27792
437.439	12.46202
437.646	12.82908
437.854	12.54756
438.061	12.77815
438.269	12.34283
438.476	12.85193
438.684	12.62041
438.891	12.48667
439.099	12.16581
439.306	12.00835
439.514	12.11772
439.721	13.30447
439.929	13.05824
440.136	13.95536
440.343	13.98253
440.551	13.99095
440.758	15.46036
440.965	14.2297
441.173	13.97566
441.38	13.8771
441.587	13.40861
441.795	13.15601
442.002	12.70562
442.209	12.75589
442.416	12.90222
442.624	12.87886
442.831	12.65811
443.038	12.26959
443.245	12.03158
443.452	12.36552
443.66	12.85376
443.867	12.32503
444.074	12.30277
444.281	12.36057
444.488	12.53736
444.695	12.68407
444.902	12.55996
445.109	13.81192
445.316	13.70296
445.523	14.23341
445.73	14.54942
445.937	15.47046
446.144	16.05853
446.351	16.56866
446.558	15.54564
446.765	17.41147
446.972	16.61898
447.179	16.20008
447.386	16.694
447.593	14.97466
447.8	15.77005
448.007	14.25455
448.214	13.64051
448.42	12.91061
448.627	13.15536
448.834	12.63343
449.041	12.4887
449.248	12.50054
449.454	13.05948
449.661	13.46004
449.868	12.3413
450.075	12.21107
450.281	11.58691
450.488	12.0309
450.695	11.99197
450.901	12.17242
451.108	12.26312
451.315	13.01602
451.521	12.33004
451.728	13.17619
451.935	12.24006
452.141	12.48355
452.348	12.51489
452.554	12.43523
452.761	12.38124
452.967	13.3418
453.174	12.61781
453.38	12.74088
453.587	11.92349
453.793	12.63057
454	13.02692
454.206	13.66362
454.413	13.07116
454.619	12.9006
454.825	12.17406
455.032	13.00312
455.238	12.8754
455.445	12.00561
455.651	12.60069
455.857	11.66403
456.064	12.31103
456.27	12.28331
456.476	12.34884
456.682	11.8797
456.889	12.63654
457.095	12.73699
457.301	13.83227
457.507	12.66573
457.714	12.65579
457.92	12.63371
458.126	12.22829
458.332	12.56985
458.538	12.47446
458.744	12.61969
458.951	12.60404
459.157	14.74385
459.363	14.26789
459.569	14.79085
459.775	15.45666
459.981	15.28367
460.187	15.70148
460.393	15.83183
460.599	15.93922
460.805	14.91082
461.011	13.89376
461.217	13.70117
461.423	13.22597
461.629	12.61059
461.835	12.927
462.041	12.53163
462.247	13.40746
462.453	12.39114
462.658	12.45632
462.864	12.82892
463.07	12.75383
463.276	12.5567
463.482	12.44708
463.688	13.25312
463.893	12.19978
464.099	12.41803
464.305	13.27839
464.511	12.32041
464.716	12.48343
464.922	12.99537
465.128	11.98004
465.333	13.38375
465.539	12.88755
465.745	12.62414
465.95	12.46123
466.156	13.9622
466.362	13.15697
466.567	12.50152
466.773	12.22201
466.978	13.1594
467.184	11.88263
467.389	11.46515
467.595	12.57419
467.8	12.02226
468.006	13.11195
468.211	13.08563
468.417	11.81233
468.622	12.61771
468.828	12.77113
469.033	12.70887
469.239	13.81113
469.444	12.24589
469.649	12.8952
469.855	12.31971
470.06	12.39858
470.266	12.06466
470.471	12.72345
470.676	12.54722
470.881	11.58985
471.087	13.1615
471.292	13.82924
471.497	11.76725
471.703	12.20304
471.908	12.03318
472.113	12.34083
472.318	12.88271
472.523	11.74097
472.729	12.4644
472.934	12.44475
473.139	12.09722
473.344	12.45856
473.549	12.84637
473.754	11.92611
473.959	13.69514
474.164	11.77355
474.369	12.11149
474.575	12.55876
474.78	12.17037
474.985	11.85623
475.19	11.2155
475.395	11.77525
475.6	12.07236
475.804	13.01986
476.009	12.22279
476.214	12.15032
476.419	11.98786
476.624	11.38991
476.829	11.63773
477.034	12.57097
477.239	11.78002
477.444	12.4625
477.648	12.47905
477.853	12.28614
478.058	11.94281
478.263	11.60523
478.468	11.57195
478.672	11.57769
478.877	12.82119
479.082	12.79506
479.287	12.23956
479.491	11.88733
479.696	11.50346
479.901	12.26711
480.105	12.34861
480.31	11.53037
480.515	11.99937
480.719	12.96879
480.924	11.78359
481.128	11.46563
481.333	12.06611
481.538	12.05538
481.742	12.47912
481.947	13.62787
482.151	14.7859
482.356	15.81016
482.56	18.3595
482.765	20.42241
482.969	24.00596
483.174	27.08229
483.378	31.0942
483.582	32.51029
483.787	35.07595
483.991	36.12018
484.196	36.44721
484.4	36.13664
484.604	36.33568
484.809	33.27901
485.013	31.39237
485.217	28.68891
485.422	25.71769
485.626	23.13685
485.83	21.64398
486.034	20.68271
486.239	20.86609
486.443	21.21225
486.647	21.64065
486.851	22.86623
487.055	24.41579
487.26	24.60494
487.464	25.74352
487.668	25.49218
487.872	26.2412
488.076	26.39471
488.28	25.46927
488.484	23.83879
488.688	23.08023
488.892	22.03578
489.096	20.31115
489.3	18.80738
489.504	17.49421
489.708	16.58178
489.912	16.03947
490.116	15.53833
490.32	15.1295
490.524	16.25845
490.728	17.17586
490.932	18.08811
491.136	19.27687
491.34	20.47867
491.544	20.92687
491.748	21.00311
491.951	21.1531
492.155	20.60458
492.359	20.02935
492.563	18.44205
492.767	17.33589
492.97	15.72042
493.174	14.0623
493.378	12.89424
493.582	11.31817
493.785	10.79958
493.989	10.83658
494.193	10.80242
494.396	10.59694
494.6	11.04591
494.804	10.58778
495.007	10.2265
495.211	10.34239
495.414	10.36515
495.618	10.7057
495.822	11.18023
496.025	10.54911
496.229	10.8284
496.432	10.18221
496.636	10.56964
496.839	10.44055
497.043	11.2259
497.246	10.6886
497.45	10.2935
497.653	10.52041
497.856	10.56591
498.06	9.92323
498.263	10.322
498.467	10.21996
498.67	10.73789
498.873	10.53465
499.077	10.13243
499.28	10.10863
499.483	10.26405
499.686	10.44733
499.89	10.2352
500.093	10.53981
500.296	9.6836
500.499	10.84569
500.703	9.95877
500.906	10.16659
501.109	10.71438
501.312	10.00266
501.515	9.81815
501.719	10.0806
501.922	10.41986
502.125	9.91677
502.328	9.77911
502.531	9.35746
502.734	9.72955
502.937	9.00787
503.14	9.89481
503.343	9.39344
503.546	9.59769
503.749	9.35103
503.952	10.01841
504.155	9.32914
504.358	9.81182
504.561	9.69749
504.764	8.98959
504.967	9.64761
505.17	9.56372
505.373	10.22004
505.576	9.5213
505.778	9.90281
505.981	9.01903
506.184	10.04437
506.387	8.6933
506.59	10.4579
506.793	9.86406
506.995	9.71596
507.198	8.56651
507.401	9.70497
507.604	9.50747
507.806	8.94368
508.009	8.96897
508.212	9.72969
508.414	9.0155
508.617	9.08833
508.82	9.32213
509.022	10.03758
509.225	9.27578
509.427	8.68852
509.63	9.84042
509.833	9.28421
510.035	8.9238
510.238	8.52397
510.44	9.77141
510.643	8.31193
510.845	10.16367
511.048	9.28931
511.25	8.83881
511.453	8.96718
511.655	9.16848
511.858	8.8369
512.06	9.3797
512.262	9.11952
512.465	9.42786
512.667	8.67126
512.869	8.39605
513.072	9.10991
513.274	9.28729
513.476	9.16598
513.679	9.23249
513.881	8.35389
514.083	9.56405
514.286	8.4314
514.488	8.4281
514.69	8.31876
514.892	7.98525
515.094	9.05231
515.297	8.28804
515.499	8.7573
515.701	8.13498
515.903	9.52816
516.105	9.5131
516.307	9.02363
516.509	7.74156
516.711	8.04465
516.913	8.64571
517.116	8.64503
517.318	8.38221
517.52	9.25307
517.722	9.00381
517.924	8.01618
518.126	8.82228
518.328	8.46201
518.529	9.16967
518.731	9.97565
518.933	8.67691
519.135	8.78096
519.337	9.43199
519.539	8.83413
519.741	7.7944
519.943	8.36998
520.145	8.29223
520.346	8.78385
520.548	8.22877
520.75	8.51318
520.952	8.23416
521.153	8.53765
521.355	8.52638
521.557	7.85337
521.759	8.26899
521.96	8.29393
522.162	7.77467
522.364	8.81048
522.565	7.98007
522.767	8.57699
522.969	8.80086
523.17	8.64529
523.372	8.50132
523.573	8.03262
523.775	8.18488
523.977	7.88191
524.178	9.26521
524.38	8.07967
524.581	8.66353
524.783	8.29903
524.984	8.70773
525.186	8.52664
525.387	9.02352
525.589	9.01502
525.79	9.12103
525.991	9.04101
526.193	9.66096
526.394	9.06667
526.596	9.92735
526.797	10.14208
526.998	9.86736
527.2	10.32328
527.401	12.05405
527.602	12.94635
527.803	15.0448
528.005	16.06239
528.206	17.41736
528.407	18.52247
528.608	18.65432
528.81	19.08667
529.011	18.73477
529.212	19.42466
529.413	18.23563
529.614	17.3081
529.815	16.2779
530.017	14.99716
530.218	13.29336
530.419	11.84799
530.62	11.30308
530.821	10.66956
531.022	9.38975
531.223	10.0257
531.424	9.73995
531.625	9.84276
531.826	9.45156
532.027	10.03985
532.228	11.13942
532.429	11.24677
532.63	11.58597
532.831	12.49055
533.032	12.70786
533.233	13.46795
533.433	13.21688
533.634	13.43249
533.835	12.87046
534.036	12.33889
534.237	11.8916
534.438	11.0834
534.638	9.94343
534.839	9.46789
535.04	9.30604
535.241	8.6401
535.441	9.419
535.642	9.00237
535.843	8.45597
536.043	8.72824
536.244	9.02654
536.445	9.21962
536.645	9.97902
536.846	9.68304
537.047	10.13324
537.247	9.13225
537.448	8.93397
537.648	8.75032
537.849	8.44989
538.049	8.42139
538.25	8.77195
538.451	8.74873
538.651	8.1005
538.851	8.83187
539.052	9.14508
539.252	8.9019
539.453	8.51573
539.653	8.76894
539.854	8.66957
540.054	8.78022
540.254	10.32883
540.455	11.37307
540.655	11.62955
540.855	13.19398
541.056	14.31016
541.256	14.23181
541.456	15.25572
541.657	14.89566
541.857	15.65127
542.057	14.44174
542.257	13.83009
542.458	14.08644
542.658	13.69848
542.858	11.87475
543.058	11.85581
543.258	11.14012
543.458	9.84836
543.659	9.45761
543.859	9.89832
544.059	9.54984
544.259	8.94153
544.459	9.6236
544.659	8.72489
544.859	9.23154
545.059	8.81635
545.259	9.41739
545.459	9.1743
545.659	9.55081
545.859	9.08607
546.059	9.41522
546.259	8.84516
546.459	8.63217
546.659	8.80003
546.859	9.61182
547.059	9.43505
547.258	9.47596
547.458	9.50079
547.658	8.80762
547.858	8.73159
548.058	9.35766
548.258	9.09924
548.457	8.79793
548.657	10.52924
548.857	9.09913
549.057	9.75236
549.256	9.69719
549.456	9.03707
549.656	8.30939
549.855	10.50972
550.055	9.07348
550.255	10.4948
550.454	9.65582
550.654	9.9955
550.853	10.43159
551.053	10.07798
551.253	9.72772
551.452	9.96978
551.652	8.93432
551.851	8.96481
552.051	9.54598
552.25	9.50352
552.45	9.43803
552.649	9.64763
552.849	9.43255
553.048	10.03
553.248	10.31466
553.447	9.39643
553.646	10.48194
553.846	11.41136
554.045	10.77426
554.244	9.23575
554.444	10.85947
554.643	9.57978
554.842	11.15906
555.042	11.34451
555.241	9.71539
555.44	9.66966
555.64	10.53797
555.839	11.25339
556.038	10.66756
556.237	9.96551
556.436	10.56304
556.636	10.63788
556.835	9.90848
557.034	11.55694
557.233	10.46848
557.432	9.66072
557.631	11.10523
557.83	10.5042
558.029	10.34294
558.228	10.20329
558.427	10.16986
558.626	10.98049
558.825	10.25208
559.024	10.57398
559.223	12.16859
559.422	10.72972
559.621	11.28221
559.82	9.58825
560.019	11.04272
560.218	10.80702
560.417	9.59907
560.616	10.90919
560.815	13.56026
561.014	10.42461
561.212	12.44268
561.411	11.43859
561.61	10.64627
561.809	11.30698
562.008	12.71732
562.206	11.41477
562.405	11.94779
562.604	11.48329
562.803	11.81186
563.001	11.62901
563.2	10.95863
563.399	12.08157
563.597	11.0924
563.796	11.82533
563.995	11.32539
564.193	12.44446
564.392	11.92845
564.59	13.50706
564.789	11.14119
564.988	12.1438
565.186	12.64792
565.385	12.39765
565.583	12.43736
565.782	12.54181
565.98	12.62017
566.179	12.66201
566.377	12.26404
566.575	12.37028
566.774	13.76444
566.972	13.34549
567.171	14.23525
567.369	13.7526
567.567	13.08188
567.766	13.08467
567.964	11.85049
568.162	13.53325
568.361	14.07329
568.559	13.13552
568.757	13.45638
568.956	13.33474
569.154	13.4641
569.352	13.89717
569.55	13.45407
569.748	13.65631
569.947	13.21558
570.145	13.114
570.343	13.23066
570.541	14.87688
570.739	13.17546
570.937	14.18422
571.135	14.33845
571.333	15.82021
571.532	15.64631
571.73	14.54153
571.928	15.11574
572.126	14.93329
572.324	14.35688
572.522	15.43484
572.72	16.57196
572.918	14.6388
573.116	15.08323
573.313	14.57911
573.511	14.78989
573.709	14.49755
573.907	15.54038
574.105	14.61242
574.303	14.0248
574.501	14.20293
574.699	15.60969
574.896	15.44644
575.094	15.7703
575.292	14.49737
575.49	15.92764
575.688	15.27778
575.885	16.27662
576.083	17.14761
576.281	15.85578
576.478	15.10208
576.676	15.99242
576.874	14.81373
577.071	15.53938
577.269	17.44328
577.467	15.7867
577.664	15.68468
577.862	16.54102
578.059	15.14469
578.257	16.57144
578.455	15.7948
578.652	15.99117
578.85	14.5946
579.047	16.30007
579.245	15.76972
579.442	16.18378
579.64	15.94347
579.837	15.15272
580.034	18.35269
580.232	16.30538
580.429	15.57634
580.627	16.84543
580.824	17.61153
581.021	17.26936
581.219	16.27118
581.416	16.2474
581.613	17.95059
581.811	17.79649
582.008	16.30778
582.205	17.68165
582.402	17.32796
582.6	18.13753
582.797	17.19448
582.994	17.46737
583.191	17.95613
583.388	17.20682
583.586	17.95488
583.783	18.21548
583.98	16.6925
584.177	17.58614
584.374	15.60031
584.571	17.56358
584.768	17.48949
584.965	17.34644
585.162	18.30357
585.359	19.11327
585.556	17.90867
585.753	18.15901
585.95	16.89073
586.147	17.37066
586.344	18.46601
586.541	17.82872
586.738	17.32498
586.935	18.20195
587.132	17.88116
587.329	19.25564
587.526	18.33214
587.722	22.45752
587.919	17.37822
588.116	18.87566
588.313	19.80305
588.51	20.5049
588.706	18.56227
588.903	19.4073
589.1	19.80612
589.297	21.42349
589.493	18.92164
589.69	19.69234
589.887	18.58354
590.083	18.39294
590.28	18.65231
590.477	20.24549
590.673	19.7815
590.87	20.46972
591.067	18.776
591.263	19.83872
591.46	19.76861
591.656	19.29364
591.853	20.81466
592.049	18.86152
592.246	19.31588
592.442	20.55256
592.639	20.65918
592.835	18.95522
593.032	20.20169
593.228	18.79901
593.425	18.86494
593.621	18.99336
593.817	20.43211
594.014	19.43448
594.21	20.34522
594.406	21.3461
594.603	20.60762
594.799	19.86336
594.995	18.69469
595.192	21.32858
595.388	20.19249
595.584	20.42152
595.78	19.72909
595.977	23.17618
596.173	22.31567
596.369	20.8135
596.565	20.27618
596.761	19.95932
596.957	22.00162
597.154	20.47765
597.35	20.68633
597.546	20.55872
597.742	21.55629
597.938	21.26344
598.134	20.37199
598.33	21.23741
598.526	22.27978
598.722	21.2022
598.918	22.65865
599.114	21.51681
599.31	19.98032
599.506	20.88606
599.702	20.50538
599.898	21.24823
600.094	22.03507
600.29	21.79608
600.485	22.17235
600.681	20.50804
600.877	23.07203
601.073	21.47135
601.269	23.40541
601.465	22.96459
601.66	20.87551
601.856	20.20063
602.052	23.8366
602.248	21.79795
602.443	20.41463
602.639	21.08387
602.835	21.42061
603.03	21.43111
603.226	23.11195
603.422	21.68911
603.617	22.17106
603.813	22.13968
604.009	22.07404
604.204	23.39954
604.4	21.38625
604.595	23.44784
604.791	21.69534
604.986	23.01551
605.182	21.96679
605.377	22.13288
605.573	22.30518
605.768	22.52483
605.964	22.95439
606.159	23.09797
606.355	23.54493
606.55	22.14349
606.746	23.39763
606.941	22.47958
607.136	24.49445
607.332	25.3693
607.527	21.56174
607.722	23.03089
607.918	22.4674
608.113	22.11142
608.308	23.79913
608.503	23.6971
608.699	23.53629
608.894	23.67997
609.089	22.54993
609.284	23.50651
609.479	23.09836
609.675	23.87058
609.87	23.16641
610.065	23.95238
610.26	23.93142
610.455	23.94953
610.65	23.27123
610.845	23.52846
611.04	24.00007
611.235	23.12462
611.43	23.01438
611.625	22.29976
611.82	24.67196
612.015	22.53397
612.21	25.00894
612.405	21.85473
612.6	25.03203
612.795	24.72946
612.99	24.03877
613.185	22.2723
613.38	22.92333
613.575	23.68209
613.77	26.53432
613.965	21.88204
614.159	22.76054
614.354	25.02553
614.549	24.4445
614.744	24.29044
614.938	22.71524
615.133	22.34526
615.328	25.10389
615.523	24.84919
615.717	26.90241
615.912	23.23402
616.107	23.8504
616.301	23.30198
616.496	23.06645
616.691	25.59464
616.885	24.66671
617.08	27.23136
617.274	24.95546
617.469	26.1198
617.664	24.72009
617.858	23.46789
618.053	24.71198
618.247	23.8013
618.442	21.68451
618.636	25.66658
618.831	23.0399
619.025	23.55015
619.219	27.23364
619.414	20.83724
619.608	23.55724
619.803	23.73594
619.997	26.74859
620.191	25.43086
620.386	24.64153
620.58	24.0644
620.774	22.28705
620.969	22.52302
621.163	24.51185
621.357	22.98845
621.551	23.97533
621.746	24.42868
621.94	24.10049
622.134	28.02431
622.328	26.74519
622.522	22.51057
622.716	25.69646
622.911	25.8221
623.105	25.65545
623.299	25.30951
623.493	28.23084
623.687	23.73197
623.881	23.91146
624.075	25.45306
624.269	26.13794
624.463	22.75549
624.657	22.82549
624.851	25.66698
625.045	25.87283
625.239	26.12742
625.433	24.79634
625.627	26.94793
625.821	24.45935
626.015	24.35388
626.209	25.50778
626.403	23.70741
626.596	25.89063
626.79	26.43007
626.984	24.00888
627.178	26.08999
627.372	25.87816
627.565	26.2401
627.759	23.98417
627.953	24.20711
628.147	25.61405
628.34	25.9097
628.534	27.87472
628.728	25.01624
628.921	26.357
629.115	26.08178
629.309	26.47567
629.502	26.77203
629.696	25.22138
629.89	25.27389
630.083	25.6277
630.277	25.80737
630.47	27.16158
630.664	24.83405
630.857	23.69093
631.051	26.17764
631.244	26.73259
631.438	26.36198
631.631	24.63895
631.825	27.35237
632.018	26.11953
632.212	27.90058
632.405	27.1646
632.598	24.63002
632.792	25.61054
632.985	22.91902
633.178	25.43582
633.372	25.64106
633.565	25.50056
633.758	27.59856
633.952	24.63657
634.145	24.83415
634.338	25.4238
634.531	25.11649
634.724	24.78227
634.918	25.92463
635.111	25.30668
635.304	24.87323
635.497	28.63192
635.69	26.18432
635.883	27.25713
636.077	24.67021
636.27	26.68124
636.463	26.40519
636.656	26.01291
636.849	25.8005
637.042	26.78104
637.235	28.29914
637.428	27.05236
637.621	26.5346
637.814	27.56853
638.007	27.59884
638.2	27.80402
638.393	28.45748
638.586	24.09861
638.778	25.47524
638.971	25.87095
639.164	28.00343
639.357	26.18384
639.55	28.55608
639.743	27.24481
639.935	26.7246
640.128	29.03326
640.321	27.86454
640.514	26.58575
640.707	29.16856
640.899	27.20263
641.092	23.77321
641.285	41.6602
641.477	23.44592
641.67	30.09649
641.863	28.39505
642.055	26.48002
642.248	26.08251
642.441	25.92638
642.633	27.3862
642.826	27.7249
643.018	28.61138
643.211	29.62132
643.403	29.48133
643.596	30.07472
643.788	29.72534
643.981	26.12635
644.173	28.15021
644.366	26.0908
644.558	23.83127
644.751	28.23947
644.943	24.60415
645.135	28.7558
645.328	29.27951
645.52	27.4448
645.712	28.5105
645.905	31.59283
646.097	24.8261
646.289	27.04229
646.482	30.46604
646.674	25.49178
646.866	28.70094
647.058	27.48203
647.251	24.96921
647.443	25.9336
647.635	26.13383
647.827	24.78287
648.019	25.39016
648.211	26.68389
648.404	26.92588
648.596	29.84859
648.788	27.667
648.98	27.1182
649.172	27.78217
649.364	27.76117
649.556	24.62806
649.748	31.68789
649.94	25.70623
650.132	28.31648
650.324	26.00355
650.516	26.36607
650.708	29.23007
650.9	25.24134
651.092	25.25842
651.284	25.08948
651.476	25.71314
651.667	28.60792
651.859	30.0995
652.051	26.96068
652.243	27.50684
652.435	26.9996
652.627	28.41963
652.818	28.55688
653.01	25.03806
653.202	26.18025
653.394	26.5956
653.585	28.16015
653.777	34.83677
653.969	30.12302
654.16	29.85544
654.352	25.84089
654.544	27.36353
654.735	29.1697
654.927	27.84592
655.118	30.04662
655.31	28.43394
655.502	29.76906
655.693	26.95762
655.885	28.29926
656.076	29.90039
656.268	28.31738
656.459	30.58837
656.651	30.11247
656.842	26.73035
657.034	26.83549
657.225	29.97453
657.416	30.58117
657.608	30.73694
657.799	28.59857
657.99	30.61659
658.182	27.6317
658.373	27.83904
658.564	30.5536
658.756	29.69275
658.947	28.40923
659.138	27.43447
659.33	28.02748
659.521	27.74016
659.712	28.61266
659.903	28.55998
660.094	27.62657
660.286	26.13502
660.477	31.50544
660.668	29.43095
660.859	27.78749
661.05	26.15196
661.241	29.76635
661.432	28.79258
661.623	27.73705
661.814	27.62212
662.006	25.47141
662.197	28.93402
662.388	29.96921
662.579	29.00984
662.77	30.37834
662.96	33.15622
663.151	29.62027
663.342	25.28207
663.533	29.6296
663.724	28.35133
663.915	31.87917
664.106	28.4594
664.297	31.64325
664.488	29.70361
664.678	27.05729
664.869	30.04338
665.06	30.22275
665.251	28.56669
665.442	29.49867
665.632	26.56301
665.823	31.64968
666.014	23.08836
666.204	30.0199
666.395	31.18505
666.586	32.87183
666.776	30.06266
666.967	31.87561
667.158	28.90359
667.348	31.59341
667.539	26.86752
667.729	30.8873
667.92	27.25375
668.111	30.78426
668.301	30.42398
668.492	28.83745
668.682	29.57615
668.873	29.42733
669.063	27.27199
669.253	30.0091
669.444	32.36356
669.634	29.01879
669.825	33.19622
670.015	31.93345
670.206	27.78842
670.396	32.84986
670.586	28.73557
670.777	30.2505
670.967	25.34609
671.157	28.62126
671.347	28.18829
671.538	32.16146
671.728	30.69582
671.918	33.41842
672.108	31.222
672.299	28.84314
672.489	30.10748
672.679	27.95855
672.869	30.40466
673.059	34.62118
673.249	30.57321
673.44	27.17773
673.63	29.41901
673.82	31.94301
674.01	27.52978
674.2	30.26413
674.39	35.59529
674.58	31.0648
674.77	29.88305
674.96	29.3334
675.15	38.42642
675.34	32.48008
675.53	29.85722
675.72	28.70944
675.91	26.63645
676.099	34.56731
676.289	35.40897
676.479	32.6646
676.669	28.85282
676.859	31.20851
677.049	28.27122
677.238	29.7414
677.428	33.98313
677.618	31.33031
677.808	34.65662
677.997	31.85041
678.187	28.38332
678.377	30.27068
678.567	29.22603
678.756	29.53012
678.946	30.84228
679.136	27.81121
679.325	29.83699
679.515	29.13546
679.704	28.66326
679.894	33.15195
680.084	31.97334
680.273	33.19712
680.463	29.3343
680.652	29.3569
680.842	30.81742
681.031	33.31512
681.221	29.5585
681.41	31.97598
681.6	30.6321
681.789	32.26689
681.978	33.5798
682.168	31.39285
682.357	31.22104
682.547	31.88031
682.736	31.27241
682.925	33.70122
683.115	33.45081
683.304	32.23432
683.493	31.2135
683.682	32.28822
683.872	31.89349
684.061	33.77771
684.25	32.61443
684.439	36.16689
684.629	33.39668
684.818	39.30568
685.007	30.90394
685.196	30.36177
685.385	35.79079
685.574	32.07111
685.763	32.77477
685.952	32.08455
686.142	28.48629
686.331	34.82518
686.52	28.15718
686.709	36.72407
686.898	36.03315
687.087	33.27018
687.276	35.95383
687.465	34.34276
687.654	31.43751
687.842	35.47513
688.031	29.54728
688.22	35.6805
688.409	31.92851
688.598	32.20595
688.787	38.69518
688.976	32.21969
689.165	37.00998
689.353	31.13266
689.542	33.51928
689.731	34.79644
689.92	38.23775
690.108	34.36013
690.297	31.54885
690.486	32.6924
690.675	34.76142
690.863	37.14071
691.052	36.71683
691.241	33.53911
691.429	33.3886
691.618	36.47401
691.806	29.86048
691.995	31.62689
692.184	32.70752
692.372	32.01597
692.561	33.55974
692.749	33.87066
692.938	42.39929
693.126	34.48926
693.315	32.54618
693.503	35.45271
693.692	36.52301
693.88	35.56947
694.068	38.82718
694.257	33.81727
694.445	35.39997
694.634	28.12242
694.822	35.45756
695.01	36.21803
695.199	40.02732
695.387	38.0024
695.575	36.80502
695.763	32.81452
695.952	32.77426
696.14	29.73916
696.328	32.22788
696.516	33.38673
696.705	35.39422
696.893	34.05097
697.081	29.62525
697.269	36.86291
697.457	31.72416
697.645	30.91338
697.833	36.48891
698.021	32.15446
698.21	33.21106
698.398	33.95041
698.586	31.39935
698.774	31.09111
698.962	34.03992
699.15	31.40904
699.338	30.22605
699.526	35.40348
699.714	32.37777
699.901	32.23562
700.089	36.08313
700.277	31.71606
700.465	33.46746
700.653	35.40265
700.841	34.40803
701.029	31.61008
701.217	38.15757
701.404	33.67214
701.592	38.23465
701.78	40.56201
701.968	34.09289
702.155	32.99605
702.343	30.7078
702.531	38.45413
702.718	34.73857
702.906	32.51291
703.094	33.00477
703.281	38.16662
703.469	34.51642
703.657	37.54721
703.844	44.93228
704.032	41.06036
704.219	33.39017
704.407	36.2411
704.595	39.2814
704.782	36.44998
704.97	35.73198
705.157	34.59167
705.345	42.52911
705.532	48.66521
705.719	39.17914
705.907	42.33307
706.094	38.27678
706.282	44.78133
706.469	38.55177
706.656	40.02029
706.844	38.6401
707.031	43.49935
707.218	41.36344
707.406	45.48946
707.593	43.09847
707.78	42.98018
707.968	41.07301
708.155	39.07739
708.342	43.71322
708.529	43.03344
708.716	42.3054
708.904	47.15049
709.091	43.37515
709.278	37.81241
709.465	48.92683
709.652	46.01188
709.839	45.44788
710.026	40.86696
710.213	35.09996
710.4	41.27616
710.587	41.92772
710.774	44.06451
710.961	43.94978
711.148	41.09822
711.335	43.65067
711.522	40.35744
711.709	42.17018
711.896	48.06088
712.083	44.19109
712.27	38.0886
712.457	42.21429
712.644	35.84937
712.831	48.46875
713.017	41.81358
713.204	44.00925
713.391	37.75717
713.578	43.99214
713.765	45.56849
713.951	41.32001
714.138	51.18042
714.325	40.72897
714.512	39.38327
714.698	36.12121
714.885	44.33893
715.072	39.06955
715.258	38.53485
715.445	36.34761
715.631	43.59086
715.818	29.5955
716.005	36.58764
716.191	40.73426
716.378	36.55921
716.564	41.41616
716.751	34.63406
716.937	36.55582
717.124	41.31807
717.31	34.49022
717.497	45.11144
717.683	35.01751
717.869	46.44477
718.056	37.02541
718.242	39.65005
718.429	36.72251
718.615	33.98479
718.801	38.00462
718.988	42.79391
719.174	40.19137
719.36	36.88392
719.547	43.05204
719.733	39.05489
719.919	39.02727
720.105	40.37653
720.291	37.68239
720.478	39.45415
720.664	38.53313
720.85	37.01328
721.036	50.03598
721.222	45.36564
721.408	38.32478
721.595	45.90243
721.781	44.71497
721.967	43.88262
722.153	46.52153
722.339	41.52781
722.525	39.45591
722.711	33.52933
722.897	34.03415
723.083	37.14739
723.269	43.56408
723.455	51.3068
723.641	56.5684
723.827	39.11299
724.012	40.74616
724.198	38.11636
724.384	45.59166
724.57	41.27869
724.756	34.02565
724.942	31.73156
725.127	43.85519
725.313	44.33347
725.499	44.41423
725.685	48.67641
725.87	41.01293
726.056	36.06382
726.242	46.21036
726.428	32.49833
726.613	42.99848
726.799	37.93733
726.985	34.62299
727.17	32.1316
727.356	48.57191
727.541	34.92433
727.727	38.97127
727.913	42.58825
728.098	36.91185
728.284	42.43212
728.469	35.25167
728.655	36.84218
728.84	44.94761
729.026	43.64404
729.211	43.12611
729.397	42.14666
729.582	43.69246
729.767	39.71543
729.953	41.68008
730.138	46.09809
730.323	30.44313
730.509	35.18578
730.694	48.07716
730.879	43.4891
731.065	41.53764
731.25	51.51779
731.435	43.5769
731.621	33.7986
731.806	37.6697
731.991	40.93201
732.176	35.13819
732.361	48.1144
732.547	41.20185
732.732	33.86947
732.917	51.78242
733.102	35.43983
733.287	36.92865
733.472	40.48546
733.657	40.2682
733.842	34.57114
734.027	38.05844
734.212	40.096
734.397	38.50278
734.582	40.536
734.767	45.63461
734.952	47.90496
735.137	29.73551
735.322	46.90125
735.507	43.70497
735.692	41.35171
735.877	50.94571
736.062	50.73255
736.247	43.58395
736.431	40.42993
736.616	45.45443
736.801	41.92542
736.986	40.99456
737.171	36.28725
737.355	34.51238
737.54	46.89659
737.725	41.91861
737.909	55.14165
738.094	39.12762
738.279	46.28552
738.463	39.57103
738.648	43.1817
738.833	43.51087
739.017	52.50548
739.202	39.80505
739.386	39.21236
739.571	36.64225
739.756	44.9753
739.94	40.46304
740.125	44.10248
740.309	36.78814
740.494	45.31773
740.678	41.61022
740.863	43.25053
741.047	40.96507
741.231	49.16135
741.416	38.13139
741.6	50.21161
741.785	37.55501
741.969	46.74826
742.153	48.80705
742.338	31.90537
742.522	41.65719
742.706	46.32758
742.89	35.73568
743.075	41.77575
743.259	49.32468
743.443	47.67739
743.627	49.98384
743.812	54.37223
743.996	33.31219
744.18	40.30867
744.364	39.97807
744.548	54.7128
744.732	40.67996
744.916	48.70467
745.1	45.62468
745.285	41.34604
745.469	46.29634
745.653	51.48108
745.837	36.53104
746.021	57.00473
746.205	50.52952
746.389	42.96128
746.573	41.68483
746.757	50.96866
746.94	40.53285
747.124	50.15636
747.308	35.88554
747.492	48.94514
747.676	37.40075
747.86	57.74918
748.044	39.08108
748.227	33.47929
748.411	66.28362
748.595	43.77014
748.779	38.37917
748.963	45.61805
749.146	43.60818
749.33	38.9579
749.514	37.53911
749.697	49.5452
749.881	40.29306
750.065	37.65956
750.248	43.93175
750.432	57.81771
750.616	43.21436
750.799	36.32444
750.983	58.76301
751.166	57.76862
751.35	35.82499
751.533	49.15298
751.717	52.54386
751.9	53.5671
752.084	41.90681
752.267	38.62424
752.451	39.74945
752.634	44.02297
752.818	47.77126
753.001	50.57668
753.184	51.1527
753.368	45.69826
753.551	25.42845
753.734	38.38289
753.918	57.78441
754.101	40.25038
754.284	47.89083
754.467	40.34453
754.651	39.27384
754.834	37.15644
755.017	50.12785
755.2	51.54089
755.384	38.59757
755.567	49.14922
755.75	49.77187
755.933	42.4088
756.116	47.99394
756.299	40.92512
756.482	38.26802
756.665	46.38489
756.848	42.79047
757.032	46.19772
757.215	34.67057
757.398	38.71691
757.581	38.83871
757.764	62.99698
757.947	41.92181
758.129	49.15731
758.312	28.48707
758.495	41.47687
758.678	42.86956
758.861	41.33332
759.044	55.52623
759.227	36.88562
759.41	39.5279
759.592	48.99004
759.775	41.88854
759.958	50.23304
760.141	37.2271
760.324	61.40398
760.506	53.92689
760.689	49.22601
760.872	57.74756
761.054	46.36582
761.237	42.84909
761.42	46.04169
761.602	49.48574
761.785	45.88748
761.968	52.01986
762.15	56.62168
762.333	43.7472
762.515	47.3726
762.698	41.69664
762.88	50.63317
763.063	46.7931
763.245	51.83587
763.428	39.09999
763.61	41.63321
763.793	36.67314
763.975	46.68903
764.158	42.5708
764.34	41.11606
764.522	39.64339
764.705	43.20834
764.887	54.31295
765.069	35.49804
765.252	48.37073
765.434	49.36911
765.616	46.30605
765.799	39.70625
765.981	48.52621
766.163	40.58627
766.345	53.77151
766.528	40.33285
766.71	32.4193
766.892	46.83621
767.074	53.26873
767.256	42.64303
767.438	56.34552
767.62	46.64452
767.802	61.75854
767.985	49.76012
768.167	59.66791
768.349	41.81928
768.531	48.7601
768.713	47.20306
768.895	49.96258
769.077	48.05831
769.259	64.78626
769.441	83.60541
769.623	51.00278
769.804	57.29233
769.986	54.80641
770.168	63.36458
770.35	72.9477
770.532	59.11829
770.714	63.46192
770.896	62.74798
771.077	38.88799
771.259	66.08907
771.441	58.23381
771.623	70.69441
771.804	79.22101
771.986	39.96596
772.168	50.58879
772.35	67.67671
772.531	80.47294
772.713	59.20609
772.894	70.93674
773.076	55.93555
773.258	51.98181
773.439	74.1664
773.621	78.70862
773.802	47.99034
773.984	51.0414
774.166	61.38052
774.347	73.05392
774.529	68.05192
774.71	36.46016
774.891	55.43083
775.073	50.98267
775.254	71.56174
775.436	49.48416
775.617	84.13971
775.799	51.93055
775.98	70.28608
776.161	78.25634
776.343	80.17278
776.524	55.81944
776.705	55.81521
776.886	39.99989
777.068	60.49258
777.249	107.91436
777.43	81.05178
777.611	44.19931
777.793	54.32474
777.974	78.13814
778.155	52.6453
778.336	47.28849
778.517	89.01621
778.698	50.97237
778.879	39.11742
779.061	30.02616
779.242	64.79001
779.423	63.23729
779.604	52.93703
779.785	54.5183
779.966	60.60732
780.147	70.3044
780.328	70.31984
780.509	90.99601
780.69	69.8307
780.871	49.68308
781.051	41.11147
781.232	60.15409
781.413	60.24981
781.594	55.11598
781.775	52.76682
781.956	48.45131
782.137	36.58264
782.317	52.48148
782.498	58.29588
782.679	59.72318
782.86	62.04786
783.04	51.8004
783.221	60.75803
783.402	79.17
783.583	57.99806
783.763	68.92364
783.944	53.26327
784.124	43.44823
784.305	81.11273
784.486	66.80072
784.666	57.68828
784.847	42.55795
785.027	100.96828
785.208	51.96024
785.388	51.24141
785.569	51.23142
785.749	56.6573
785.93	53.79517
786.11	42.28847
786.291	65.43529
786.471	61.12458
786.652	70.59607
786.832	56.33727
787.012	61.27046
787.193	46.0924
787.373	59.75826
787.553	54.4266
787.734	64.16466
787.914	55.26256
788.094	70.65566
788.275	61.71787
788.455	53.82239
788.635	45.65642
788.815	61.12312
788.995	47.75072
789.176	40.51809
789.356	50.83667
789.536	55.41202
789.716	62.97912
789.896	49.27652
790.076	51.87882
790.256	61.8165
790.436	34.97294
790.616	47.46217
790.796	59.69126
790.976	55.06822
791.156	50.37616
791.336	66.12098
791.516	61.47525
791.696	56.38484
791.876	42.53832
792.056	59.52454
792.236	70.12088
792.416	68.13795
792.596	63.76062
792.776	64.86766
792.956	67.40602
793.135	81.18965
793.315	48.28137
793.495	70.72199
793.675	67.90302
793.854	66.94997
794.034	69.96844
794.214	46.87511
794.394	67.62932
794.573	74.91137
794.753	59.15453
794.933	48.62787
795.112	61.48316
795.292	70.90519
795.472	80.48129
795.651	44.01115
795.831	58.00064
796.01	55.50486
796.19	55.39875
796.369	59.09463
796.549	63.55613
796.728	57.43519
796.908	42.79021
797.087	45.95397
797.267	53.22303
797.446	45.75266
797.626	65.14747
797.805	63.38526
797.984	50.42504
798.164	68.14311
798.343	49.85014
798.522	60.66095
798.702	61.2317
798.881	45.92064
799.06	55.99312
799.239	39.19657
799.419	48.92283
799.598	82.76824
799.777	62.28481
799.956	74.43705
800.136	55.97489
800.315	47.32027
800.494	64.39365
800.673	73.50684
800.852	67.88014
801.031	72.86018
801.21	65.45412
801.389	54.73336
801.568	60.83756
801.747	83.69926
801.926	60.78716
802.105	78.38477
802.284	53.83243
802.463	82.04991
802.642	62.55034
802.821	62.22229
803	76.68163
803.179	71.88181
803.358	73.78045
803.537	51.52172
803.716	58.78744
803.895	51.01357
804.073	56.84355
804.252	50.55961
804.431	64.75408
804.61	56.33914
804.789	70.12401
804.967	52.63532
805.146	53.27486
805.325	88.73599
805.503	64.91795
805.682	44.64655
805.861	103.47267
806.039	77.91898
806.218	57.27599
806.397	61.83402
806.575	58.2742
806.754	64.28234
806.932	48.35572
807.111	74.06291
807.289	69.79457
807.468	60.09682
807.646	72.32866
807.825	69.25245
808.003	61.22762
808.182	73.42208
808.36	59.00425
808.539	49.74964
808.717	80.21195
808.895	51.52589
809.074	62.77096
809.252	60.14155
809.43	70.59536
809.609	77.23472
809.787	84.53364
809.965	57.01673
810.144	63.58633
810.322	61.5942
810.5	66.71707
810.678	57.29028
810.856	92.18342
811.035	75.44449
811.213	68.86183
811.391	83.1229
811.569	66.97687
811.747	108.64085
811.925	77.75258
812.103	53.52714
812.281	62.28137
812.459	88.51761
812.637	87.1979
812.816	71.89718
812.994	92.03843
813.171	83.3319
813.349	69.69868
813.527	79.26216
813.705	82.24384
813.883	102.82322
814.061	74.22742
814.239	88.59531
814.417	95.10674
814.595	71.88967
814.773	69.7572
814.95	66.19161
815.128	68.55865
815.306	66.60829
815.484	60.60545
815.662	53.08808
815.839	48.85906
816.017	56.97561
816.195	79.15082
816.372	57.63657
816.55	72.43581
816.728	85.71338
816.905	60.01838
817.083	87.19313
817.261	62.20062
817.438	108.50734
817.616	88.54339
817.793	55.40247
817.971	76.27574
818.148	75.81559
818.326	83.49041
818.503	67.35215
818.681	88.42822
818.858	59.18553
819.036	63.45158
819.213	65.91262
819.391	54.8331
819.568	55.78578
819.745	50.91569
819.923	75.15921
820.1	60.28219
820.277	52.37419
820.455	58.55914
820.632	61.79666
820.809	64.27467
820.986	49.40622
821.164	44.96225
821.341	43.54261
821.518	54.13607
821.695	45.25431
821.872	43.3823
822.05	40.63515
822.227	37.48278
822.404	38.66524
822.581	40.91305
822.758	38.8173
822.935	39.11014
823.112	40.13502
823.289	38.14403
823.466	41.63146
823.643	40.48168
823.82	44.0299
823.997	42.11946
824.174	45.60113
824.351	52.54754
824.528	51.39804
824.705	49.97591
824.882	51.90027
825.059	59.33447
825.236	50.35169
825.412	51.03619
825.589	55.19808
825.766	67.38749
825.943	50.38625
826.12	56.10158
826.296	47.65546
826.473	51.84118
826.65	52.1699
826.827	56.74434
827.003	45.93063
827.18	48.45581
827.357	51.47174
827.533	46.82402
827.71	37.64656
827.887	45.01562
828.063	48.19235
828.24	44.62399
828.416	50.1454
828.593	45.6046
828.769	56.15762
828.946	57.29953
829.122	59.1739
829.299	57.11013
829.475	45.63546
829.652	57.42429
829.828	78.72169
830.005	59.23107
830.181	72.04131
830.357	59.92585
830.534	71.61744
830.71	61.77524
830.886	70.80146
831.063	70.95772
831.239	83.11376
831.415	52.46027
831.592	83.04684
831.768	62.05511
831.944	57.69286
832.12	88.54011
832.296	84.66916
832.473	72.1409
832.649	56.8208
832.825	73.94053
833.001	51.36842
833.177	67.71026
833.353	61.7936
833.529	44.53323
833.705	59.25196
833.881	46.55127
834.058	46.73977
834.234	48.67966
834.41	48.36273
834.586	41.99373
834.761	45.94829
834.937	49.06765
835.113	50.13285
835.289	46.56791
835.465	51.21948
835.641	48.32778
835.817	50.60286
835.993	71.5656
836.169	49.87261
836.344	64.90075
836.52	67.14488
836.696	64.6272
836.872	57.2638
837.048	112.48059
837.223	60.4929
837.399	90.80716
837.575	77.77606
837.75	75.10926
837.926	93.2037
838.102	125.10682
838.277	109.65492
838.453	139.18969
838.628	138.80547
838.804	69.4723
838.98	125.16457
839.155	75.63299
839.331	95.86494
839.506	70.13474
839.682	74.40613
839.857	94.07863
840.033	104.88614
840.208	61.81912
840.384	43.19541
840.559	62.77396
840.734	81.62444
840.91	101.55072
841.085	68.30917
841.26	70.4139
841.436	65.35297
841.611	65.51671
841.786	91.95095
841.962	109.11943
842.137	76.99362
842.312	60.11924
842.487	66.69938
842.663	61.69616
842.838	71.72849
843.013	179.61427
843.188	99.71413
843.363	108.61886
843.538	151.77756
843.714	153.93092
843.889	156.90681
844.064	165.84519
844.239	143.28857
844.414	157.42326
844.589	112.3584
844.764	187.75728
844.939	187.5498
845.114	199.73066
845.289	191.22298
845.464	253.26409
845.639	177.6267
845.814	105.60753
845.989	116.07139
846.163	136.17459
846.338	141.84544
846.513	189.05061
846.688	132.34414
846.863	137.07817
847.038	121.79848
847.212	140.98247
847.387	142.25112
847.562	141.9095
847.737	172.23348
847.911	86.09315
848.086	96.77488
848.261	299.43517
848.435	126.24652
848.61	184.49744
848.785	108.94698
848.959	185.47221
849.134	246.40178
849.308	254.22852
849.483	148.58157
849.658	219.49275
849.832	129.03148
850.007	113.81956
850.181	278.46531
850.356	117.10534
850.53	258.13447
850.705	99.47865
850.879	74.63793
851.053	141.97804
851.228	123.6359
851.402	152.06194
851.577	194.62564
851.751	215.63019
851.925	145.98006
852.099	86.04867
852.274	108.94818
852.448	139.03366
852.622	154.30953
852.797	148.28947
852.971	141.50735
853.145	148.04639
853.319	377.71551
853.493	209.08125
853.668	118.27399
853.842	248.28442
854.016	207.28334
854.19	227.01794
854.364	149.50618
854.538	164.48373
854.712	212.57174
854.886	132.45353
855.06	129.17312
855.234	67.6323
855.408	225.55708
855.582	195.36227
855.756	193.88301
855.93	242.51075
856.104	171.1864
856.278	194.64814
856.452	154.05633
856.626	192.25917
856.8	288.95703
856.973	181.78951
857.147	175.74455
857.321	171.41952
857.495	203.92976
857.669	144.14133
857.842	128.4966
858.016	202.96039
858.19	116.04186
858.364	309.31885
858.537	137.90104
858.711	154.44362
858.885	138.89267
859.058	124.68721
859.232	79.73733
859.405	94.14465
859.579	197.60546
859.753	167.82847
859.926	115.10387
860.1	88.01286
860.273	147.70641
860.447	229.4893
860.62	140.9266
860.794	275.42007
860.967	167.83321
861.141	208.16909
861.314	288.4288
861.487	190.36993
861.661	233.82826
861.834	230.38772
862.008	204.221
862.181	154.28835
862.354	156.74677
862.528	166.70804
862.701	132.8226
862.874	99.82409
863.047	136.23519
863.221	131.87782
863.394	81.49167
863.567	232.91569
863.74	68.52068
863.913	192.35122
864.087	164.10624
864.26	202.92585
864.433	153.61919
864.606	252.07727
864.779	162.99876
864.952	89.81372
865.125	129.12008
865.298	150.99957
865.471	158.42554
865.644	284.67929
865.817	231.14783
865.99	195.17997
866.163	219.42505
866.336	138.56951
866.509	151.607
866.682	144.19727
866.855	215.79251
867.028	109.60303
867.2	190.02723
867.373	76.36567
867.546	167.46521
867.719	292.29615
867.892	188.8727
868.064	118.66798
868.237	181.19857
868.41	157.67053
868.583	103.17504
868.755	107.77037
868.928	161.26793
869.101	293.43208
869.273	220.80416
869.446	188.44288
869.619	210.31913
869.791	148.8736
869.964	216.73272
870.136	199.18936
870.309	161.74955
870.481	160.64742
870.654	95.14945
870.826	163.08281
870.999	140.57626
871.171	201.84819
871.344	134.6197
871.516	156.47914
871.689	120.75666
871.861	162.28509
872.033	122.06005
872.206	138.12042
872.378	210.88539
872.55	137.70114
872.723	102.76275
872.895	144.92888
873.067	217.25275
873.24	236.40429
873.412	132.52937
873.584	148.55394
873.756	139.05257
873.928	177.28257
874.101	176.00821
874.273	187.94697
874.445	79.72941
874.617	103.4847
874.789	166.92956
874.961	137.76484
875.133	186.24159
875.305	162.37313
875.477	114.90006
875.649	93.15677
875.821	115.32763
875.993	245.76942
876.165	110.1149
876.337	175.38262
876.509	142.86755
876.681	181.27638
876.853	169.56229
877.025	170.49968
877.197	120.96947
877.369	116.01026
877.541	200.64246
877.712	72.97456
877.884	110.52193
878.056	189.58837
878.228	110.54472
878.4	182.88347
878.571	115.20564
878.743	85.73024
878.915	167.98544
879.086	108.74989
879.258	130.85567
879.43	118.4501
879.601	107.33557
879.773	111.78444
879.945	45.44892
880.116	61.04981
880.288	47.66518
880.459	48.89692
880.631	42.67338
880.802	46.23595
880.974	45.67188
881.145	39.19435
881.317	44.77866
881.488	39.11137
881.66	41.59345
881.831	39.71415
882.002	46.2209
882.174	40.70264
882.345	46.07547
882.517	36.34005
882.688	49.8824
882.859	47.07428
883.03	61.14293
883.202	58.66184
883.373	57.59003
883.544	56.9129
883.715	79.50631
883.887	70.34852
884.058	64.60585
884.229	81.00696
884.4	82.53672
884.571	89.87098
884.742	81.93171
884.914	85.25548
885.085	114.40684
885.256	132.15361
885.427	113.03509
885.598	127.23978
885.769	134.22587
885.94	126.37403
886.111	97.27165
886.282	146.91367
886.453	123.89042
886.624	98.70439
886.795	139.89557
886.966	125.56413
887.136	157.01312
887.307	108.13633
887.478	183.53587
887.649	165.28755
887.82	173.86984
887.991	141.56481
888.161	182.61569
888.332	180.7442
888.503	106.90751
888.674	233.66185
888.844	244.05893
889.015	201.58498
889.186	104.69803
889.356	229.57719
889.527	103.12451
889.698	369.98196
889.868	144.2311
890.039	176.51959
890.209	147.07281
890.38	195.37383
890.551	170.88962
890.721	241.8613
890.892	204.52028
891.062	145.93417
891.233	180.43864
891.403	145.85428
891.574	118.63493
891.744	147.44642
891.914	191.48678
892.085	156.23741
892.255	76.7679
892.425	241.87983
892.596	194.99341
892.766	183.08248
892.936	234.99015
893.107	200.83284
893.277	121.80572
893.447	101.445
893.618	78.13587
893.788	133.64727
893.958	84.01948
894.128	89.62114
894.298	95.54692
894.468	119.95239
894.639	65.98726
894.809	53.77633
894.979	73.45103
895.149	80.21732
895.319	70.08656
895.489	89.78678
895.659	101.09201
895.829	75.83029
895.999	81.65474
896.169	69.08253
896.339	78.89536
896.509	138.14057
896.679	157.09489
896.849	153.53914
897.019	199.64319
897.189	163.3605
897.358	152.10895
897.528	200.73952
897.698	90.20913
897.868	192.72097
898.038	302.94513
898.208	281.98958
898.377	119.48444
898.547	293.71419
898.717	446.66635
898.886	192.14323
899.056	280.50884
899.226	429.0709
899.395	277.74603
899.565	326.61316
899.735	216.81919
899.904	352.97734
900.074	301.29216
900.244	161.85523
900.413	525.47632
900.583	151.73938
900.752	210.64736
900.922	337.63543
901.091	65.26698
901.261	284.37214
901.43	276.08152
901.599	273.13614
901.769	582.27232
901.938	323.92278
902.108	324.25178
902.277	389.15408
902.446	126.21882
902.616	146.41597
902.785	198.68234
902.954	301.56705
903.124	216.5555
903.293	174.30459
903.462	110.18048
903.631	134.9326
903.801	106.16373
903.97	68.32446
904.139	101.67959
904.308	77.35557
904.477	69.00285
904.646	49.78055
904.816	66.51568
904.985	88.20487
905.154	121.56844
