Data from WindowProjectSample3_Transmission__56__00056.txt Node

Date: Sun May 04 11:30:40 EDT 2025
User: jessi
Spectrometer: SR400872
Trigger mode: 0
Integration Time (sec): 5.000050E-1
Scans to average: 20
Electric dark correction enabled: true
Nonlinearity correction enabled: true
Boxcar width: 0
XAxis mode: Wavelengths
Number of Pixels in Spectrum: 3648
>>>>>Begin Spectral Data<<<<<
184.909	-1286.12074
185.132	-1469.35771
185.355	-1154.75748
185.578	-1081.75205
185.801	1352.05634
186.024	-931.03288
186.247	-5411.30884
186.47	-1612.64564
186.693	-232.29158
186.916	-331.35824
187.139	-784.9912
187.362	-2873.73782
187.585	-686.48904
187.808	-5018.48066
188.031	10741.7597
188.254	-2314.04571
188.476	-9549.54219
188.699	-998.8804
188.922	692.16648
189.145	-1218.39136
189.368	3242.63935
189.591	-2433.10345
189.813	-1488.96157
190.036	-889.8749
190.259	-1134.34889
190.482	-1576.35339
190.705	-2407.92504
190.927	-735.82422
191.15	-1513.41047
191.373	-1069.80663
191.595	-1305.75019
191.818	-1381.96134
192.041	-701.66797
192.263	-1126.92343
192.486	-581.9509
192.709	-1545.26689
192.931	-3319.15216
193.154	-1167.55022
193.377	-1660.00848
193.599	-3422.41579
193.822	-3378.77485
194.044	-3416.32028
194.267	-1885.2127
194.489	-116.35844
194.712	-966.43226
194.934	-1727.70426
195.157	-746.09954
195.379	-1324.57388
195.602	-841.47226
195.824	-1278.41596
196.047	-2157.01967
196.269	-1072.56697
196.492	-1411.32299
196.714	-1281.61399
196.936	-1254.0189
197.159	-926.89149
197.381	-751.27165
197.604	-478.80833
197.826	-2140.99692
198.048	-1112.30124
198.271	-1613.80059
198.493	-1158.18615
198.715	-949.43897
198.938	-3144.08076
199.16	-4067.9936
199.382	-1233.89985
199.604	-1196.9919
199.827	-1869.16877
200.049	-1689.79154
200.271	-1182.31045
200.493	-1445.03418
200.715	-955.72601
200.938	-829.46111
201.16	-948.11621
201.382	-984.68885
201.604	-1242.812
201.826	-735.37312
202.048	-827.53275
202.27	-1407.11374
202.492	-1400.8385
202.715	-1967.4903
202.937	-2039.42588
203.159	-1355.5374
203.381	-1593.77507
203.603	-1000.06242
203.825	-5108.77832
204.047	-1688.40103
204.269	-1374.28435
204.491	-1306.98857
204.713	-1566.38745
204.935	-1336.91605
205.156	-2698.70429
205.378	-2781.32029
205.6	-1564.38829
205.822	-1112.6744
206.044	1294.17548
206.266	-1321.90496
206.488	-921.98403
206.71	-1701.49303
206.932	-1792.76053
207.153	-1103.7121
207.375	-1391.26013
207.597	-1102.88698
207.819	-1126.61399
208.041	-1210.90937
208.262	-1545.3159
208.484	-892.35707
208.706	-2176.94079
208.927	-823.17385
209.149	-1388.80824
209.371	-1215.09477
209.593	-1541.11514
209.814	-637.28518
210.036	-877.67858
210.258	-773.67609
210.479	-1018.8785
210.701	-1783.26494
210.922	-1329.61319
211.144	-1078.52767
211.366	-1130.3171
211.587	1402.78096
211.809	-1146.13255
212.03	-6533.83183
212.252	1037.56919
212.473	-927.38935
212.695	-18435.74812
212.916	-3585.69888
213.138	-1526.20896
213.359	-921.95055
213.581	-1430.23019
213.802	-870.94818
214.024	-1345.57859
214.245	-11648.5391
214.466	-851.62591
214.688	-1432.03006
214.909	-1032.11141
215.131	-2712.6412
215.352	-3711.03731
215.573	-1091.32515
215.795	-1866.03488
216.016	-1469.29602
216.237	-3236.31955
216.459	-1459.36883
216.68	-1050.4953
216.901	-1529.92882
217.122	10955.76831
217.344	-964.78683
217.565	-1310.98935
217.786	-1358.88901
218.007	-909.31302
218.228	-1305.93377
218.45	-1115.10123
218.671	-1118.27398
218.892	-1015.77436
219.113	-1643.32773
219.334	-130.5055
219.555	-1512.86892
219.776	-1546.76935
219.997	-1254.66772
220.219	17645.24745
220.44	-1214.06361
220.661	-3591.87174
220.882	-947.18513
221.103	1670.11705
221.324	-2839.81564
221.545	-1143.62503
221.766	-1329.01748
221.987	-1869.0552
222.208	-1953.31322
222.429	-757.33076
222.65	-778.62475
222.87	-1601.11035
223.091	-3587.50624
223.312	2953.87802
223.533	-1135.01043
223.754	-1564.83099
223.975	-2218.04707
224.196	8166.49742
224.417	-7728.80572
224.637	3947.60413
224.858	140.41297
225.079	-1957.33642
225.3	26071.59818
225.521	-1036.52011
225.741	-5435.31222
225.962	7328.0773
226.183	378.08868
226.404	-3700.41206
226.624	2564.6654
226.845	-82945.53462
227.066	-649648.36028
227.286	925.89575
227.507	329.51733
227.728	281.80617
227.948	668.26253
228.169	175.71331
228.389	169.55181
228.61	98.8885
228.831	129.35364
229.051	9.88325
229.272	71.35771
229.492	108.53062
229.713	29.82194
229.933	72.95554
230.154	59.18758
230.374	102.21986
230.595	74.49646
230.815	45.5244
231.036	75.24544
231.256	-10.30313
231.477	129.02093
231.697	77.3592
231.917	81.88693
232.138	116.59367
232.358	239.12255
232.579	192.20325
232.799	33.71008
233.019	198.82816
233.24	237.60855
233.46	84.97035
233.68	124.47121
233.901	77.08417
234.121	55.67652
234.341	24.08013
234.561	-4.78489
234.782	44.49229
235.002	131.72459
235.222	-1.35581
235.442	120.35051
235.662	59.87554
235.883	113.94071
236.103	98.81396
236.323	66.29905
236.543	53.3014
236.763	78.04422
236.983	78.93651
237.203	75.38158
237.423	114.9163
237.643	168.93113
237.864	146.37109
238.084	40.32515
238.304	48.99088
238.524	85.6086
238.744	74.21977
238.964	130.32063
239.184	112.85202
239.404	128.11917
239.624	66.80897
239.843	109.07696
240.063	64.78219
240.283	42.09525
240.503	45.17968
240.723	45.9325
240.943	28.49552
241.163	34.92965
241.383	25.21362
241.603	14.5891
241.822	15.62922
242.042	10.58123
242.262	14.20786
242.482	15.01042
242.702	16.55786
242.921	5.29167
243.141	10.84114
243.361	10.79173
243.581	15.59175
243.8	13.0313
244.02	8.2841
244.24	15.26388
244.459	14.29669
244.679	30.18946
244.899	20.11949
245.118	22.95064
245.338	21.12434
245.558	23.8239
245.777	14.19641
245.997	16.96209
246.216	17.86353
246.436	10.23322
246.655	7.5303
246.875	5.78189
247.094	10.36756
247.314	3.95733
247.533	6.45505
247.753	7.06641
247.972	5.67131
248.192	2.20027
248.411	3.46367
248.631	5.62707
248.85	6.99196
249.07	6.72964
249.289	9.78586
249.508	7.45528
249.728	11.77901
249.947	11.26714
250.166	15.47691
250.386	7.13351
250.605	11.42868
250.824	18.79114
251.044	11.87437
251.263	38.8389
251.482	23.68082
251.701	20.25503
251.921	0.19798
252.14	6.39279
252.359	8.14048
252.578	16.5342
252.798	6.55815
253.017	14.18712
253.236	6.97193
253.455	9.85203
253.674	18.88036
253.893	8.66144
254.112	13.42171
254.331	18.86199
254.551	15.71879
254.77	8.3953
254.989	23.04443
255.208	17.01604
255.427	27.77982
255.646	23.15527
255.865	34.10323
256.084	16.28378
256.303	18.6879
256.522	23.38041
256.741	6.36624
256.96	5.80745
257.179	14.12829
257.397	17.86577
257.616	9.23378
257.835	11.29538
258.054	25.32626
258.273	17.54486
258.492	17.71738
258.711	11.15409
258.93	5.28446
259.148	8.25457
259.367	7.35125
259.586	9.5564
259.805	4.2808
260.023	7.75943
260.242	5.66726
260.461	4.47561
260.68	2.35145
260.898	6.64086
261.117	2.34948
261.336	1.55394
261.554	5.48856
261.773	5.57029
261.992	1.49207
262.21	5.45981
262.429	6.48096
262.648	11.03917
262.866	12.54924
263.085	9.44665
263.303	7.98964
263.522	14.58936
263.74	14.03499
263.959	23.98287
264.178	12.8311
264.396	10.37433
264.615	7.63748
264.833	17.463
265.051	15.20576
265.27	18.14782
265.488	17.80622
265.707	11.2713
265.925	17.72258
266.144	8.53974
266.362	9.17548
266.58	9.59102
266.799	8.36853
267.017	10.11671
267.235	8.68507
267.454	6.2253
267.672	2.92026
267.89	7.0121
268.109	7.845
268.327	7.26993
268.545	1.85793
268.763	6.69835
268.982	3.05011
269.2	7.78576
269.418	5.27518
269.636	4.27385
269.854	7.47507
270.073	5.56753
270.291	3.19628
270.509	3.21489
270.727	7.82802
270.945	12.00098
271.163	11.67092
271.381	2.77508
271.599	5.06059
271.817	8.2456
272.036	2.90492
272.254	5.71465
272.472	3.97619
272.69	4.13088
272.908	4.20254
273.126	6.54978
273.344	8.74534
273.562	3.09957
273.779	4.74017
273.997	6.95516
274.215	6.38016
274.433	4.71514
274.651	7.37772
274.869	7.12925
275.087	4.53165
275.305	6.75869
275.523	4.4933
275.74	5.12386
275.958	9.02164
276.176	12.92229
276.394	4.07271
276.612	5.2785
276.829	5.4941
277.047	4.72812
277.265	5.16882
277.483	5.77321
277.7	6.47142
277.918	5.7274
278.136	10.01721
278.353	5.1292
278.571	2.99159
278.789	7.78992
279.006	1.91501
279.224	4.92139
279.442	8.12244
279.659	6.02525
279.877	3.9077
280.094	8.56578
280.312	2.10086
280.529	5.79858
280.747	2.16958
280.964	4.84351
281.182	9.01111
281.399	5.0332
281.617	5.86492
281.834	4.42854
282.052	3.17174
282.269	5.41379
282.487	4.24049
282.704	3.91566
282.921	3.41654
283.139	5.60275
283.356	6.91012
283.574	6.60917
283.791	3.15898
284.008	8.41278
284.226	5.03975
284.443	5.54839
284.66	7.15786
284.877	6.21389
285.095	3.54814
285.312	2.79058
285.529	1.87305
285.746	1.58693
285.964	3.41785
286.181	2.49319
286.398	3.25741
286.615	4.55613
286.832	4.19009
287.05	1.27493
287.267	3.06622
287.484	3.37311
287.701	4.47459
287.918	4.14699
288.135	4.42585
288.352	2.09851
288.569	2.44133
288.786	4.13872
289.003	3.14804
289.22	5.18966
289.437	2.99602
289.654	4.66357
289.871	4.84923
290.088	4.80731
290.305	3.88647
290.522	3.21314
290.739	3.3807
290.956	5.03104
291.173	5.9772
291.39	5.48174
291.607	3.85042
291.824	3.31973
292.04	2.56657
292.257	4.89858
292.474	5.42695
292.691	3.46441
292.908	1.78351
293.125	3.19197
293.341	2.0551
293.558	8.32927
293.775	3.77788
293.992	4.06141
294.208	1.63867
294.425	2.64912
294.642	3.39904
294.858	4.8294
295.075	1.55087
295.292	3.69319
295.508	4.40235
295.725	6.28182
295.942	3.56404
296.158	3.04905
296.375	4.33619
296.591	3.52429
296.808	3.79177
297.024	4.49125
297.241	4.71432
297.458	5.1072
297.674	1.90747
297.891	4.43846
298.107	4.19069
298.323	3.33198
298.54	6.01196
298.756	4.03484
298.973	2.89652
299.189	6.72682
299.406	4.39957
299.622	6.77595
299.838	7.2487
300.055	6.60286
300.271	3.81544
300.487	4.4074
300.704	4.9006
300.92	4.22538
301.136	9.20163
301.353	7.81285
301.569	6.38499
301.785	6.66906
302.001	7.4696
302.218	7.05749
302.434	7.55558
302.65	5.11652
302.866	6.04104
303.083	10.50847
303.299	10.35723
303.515	7.29017
303.731	7.95024
303.947	5.47403
304.163	6.46929
304.379	7.59874
304.595	7.99793
304.812	6.48532
305.028	6.36717
305.244	6.88437
305.46	8.71884
305.676	8.9489
305.892	9.73409
306.108	8.86453
306.324	7.68383
306.54	10.66524
306.756	8.68086
306.972	8.6429
307.187	8.26237
307.403	10.37247
307.619	7.43951
307.835	9.89365
308.051	10.39981
308.267	7.15804
308.483	10.43999
308.699	9.32752
308.914	8.64637
309.13	8.84161
309.346	6.77713
309.562	7.56849
309.778	6.90743
309.993	9.58481
310.209	9.58572
310.425	7.60444
310.641	9.08898
310.856	8.23205
311.072	8.00566
311.288	9.25172
311.503	9.75077
311.719	7.20317
311.935	7.40398
312.15	10.15743
312.366	9.93064
312.581	10.16206
312.797	9.64317
313.013	10.62174
313.228	8.67168
313.444	9.24961
313.659	8.30762
313.875	10.11992
314.09	9.50177
314.306	11.64429
314.521	10.86219
314.737	10.744
314.952	10.1213
315.168	10.30972
315.383	10.32761
315.599	9.31389
315.814	9.89409
316.029	11.15146
316.245	8.68852
316.46	7.31213
316.675	11.72496
316.891	12.77278
317.106	14.4688
317.321	10.70929
317.537	10.91236
317.752	11.5111
317.967	11.38434
318.183	8.77668
318.398	9.69295
318.613	11.6121
318.828	12.28409
319.043	11.39116
319.259	10.0663
319.474	10.61017
319.689	12.32947
319.904	7.61688
320.119	12.29792
320.334	10.69932
320.549	9.90098
320.765	12.42073
320.98	11.16799
321.195	11.42291
321.41	10.74542
321.625	11.74683
321.84	13.15881
322.055	12.9397
322.27	9.56385
322.485	9.04604
322.7	11.5906
322.915	12.34784
323.13	10.18866
323.345	13.67234
323.56	12.28283
323.775	12.31314
323.989	12.26416
324.204	11.47045
324.419	12.51816
324.634	9.35852
324.849	11.35018
325.064	14.36141
325.279	12.96458
325.493	12.15994
325.708	12.53732
325.923	10.28414
326.138	11.0801
326.352	13.53033
326.567	12.66074
326.782	10.78548
326.997	10.679
327.211	12.34264
327.426	11.85098
327.641	11.21828
327.855	9.39429
328.07	12.40778
328.285	14.63836
328.499	10.92419
328.714	11.86951
328.928	12.36319
329.143	11.54051
329.358	13.79897
329.572	13.11734
329.787	13.76847
330.001	15.62267
330.216	9.46912
330.43	15.01254
330.645	13.67951
330.859	13.15015
331.074	10.41083
331.288	11.71508
331.503	14.7716
331.717	10.14467
331.931	11.83206
332.146	12.50569
332.36	15.28508
332.575	12.88846
332.789	12.22719
333.003	12.30027
333.218	13.01939
333.432	11.35346
333.646	13.70442
333.86	14.93974
334.075	14.97305
334.289	11.69426
334.503	10.12097
334.717	13.30261
334.932	12.39802
335.146	13.04868
335.36	10.67686
335.574	13.00951
335.788	12.54303
336.003	13.66473
336.217	13.97072
336.431	12.90279
336.645	12.03334
336.859	11.07182
337.073	12.59554
337.287	13.27518
337.501	11.23373
337.715	13.73985
337.929	13.80029
338.143	11.48557
338.357	12.76609
338.571	12.24655
338.785	14.22652
338.999	11.96776
339.213	12.14229
339.427	11.15436
339.641	14.64986
339.855	11.87861
340.069	11.39305
340.283	14.27427
340.497	14.9
340.711	13.7002
340.924	13.0732
341.138	11.7338
341.352	11.14763
341.566	13.00109
341.78	10.7622
341.993	12.29614
342.207	11.94643
342.421	13.78196
342.635	12.82389
342.848	12.45711
343.062	9.62707
343.276	12.10787
343.49	15.93668
343.703	12.34896
343.917	14.73426
344.131	14.93219
344.344	12.30912
344.558	12.69392
344.771	11.91887
344.985	15.03298
345.199	16.05262
345.412	13.79298
345.626	14.24634
345.839	11.20656
346.053	12.12506
346.266	12.31066
346.48	14.21666
346.693	13.95962
346.907	13.95567
347.12	12.21874
347.334	13.54089
347.547	13.97514
347.76	13.24695
347.974	14.92518
348.187	13.81274
348.401	13.44199
348.614	12.20338
348.827	13.25871
349.041	14.10448
349.254	11.27311
349.467	13.58668
349.681	12.56624
349.894	12.57227
350.107	15.42359
350.32	16.66383
350.534	12.13357
350.747	13.45751
350.96	12.72956
351.173	12.66813
351.386	13.16666
351.6	13.05739
351.813	13.11442
352.026	13.43792
352.239	12.44312
352.452	13.20527
352.665	15.86126
352.878	13.44701
353.092	17.12803
353.305	15.03091
353.518	14.15749
353.731	12.85024
353.944	15.5633
354.157	13.70993
354.37	13.56823
354.583	12.78629
354.796	12.58485
355.009	15.80448
355.222	14.81873
355.435	14.2944
355.647	15.86992
355.86	13.43462
356.073	14.75319
356.286	14.01496
356.499	15.98656
356.712	15.98367
356.925	15.30782
357.138	16.19465
357.35	13.74962
357.563	14.32191
357.776	15.12958
357.989	15.19246
358.201	15.79778
358.414	15.42296
358.627	16.50472
358.84	14.72006
359.052	13.40581
359.265	13.7564
359.478	16.2056
359.69	12.00968
359.903	16.55882
360.116	16.86553
360.328	13.46586
360.541	16.47451
360.753	14.72446
360.966	15.19417
361.179	15.4557
361.391	15.34145
361.604	14.85149
361.816	15.15719
362.029	15.23625
362.241	14.67496
362.454	15.38432
362.666	14.71961
362.879	16.06325
363.091	15.17237
363.304	14.86854
363.516	15.03886
363.728	14.17232
363.941	15.73599
364.153	15.52059
364.366	12.86854
364.578	14.36312
364.79	15.98665
365.003	15.71586
365.215	14.89247
365.427	16.23113
365.639	16.99998
365.852	16.05648
366.064	17.45832
366.276	15.26185
366.488	16.06842
366.701	15.53447
366.913	15.32653
367.125	15.5986
367.337	14.656
367.549	15.0185
367.762	15.61566
367.974	15.47093
368.186	15.35108
368.398	16.88047
368.61	16.16789
368.822	16.59236
369.034	15.34105
369.246	16.72644
369.458	18.91538
369.67	14.8816
369.882	18.07658
370.094	13.68363
370.306	17.57381
370.518	15.68539
370.73	15.76014
370.942	15.6769
371.154	15.98609
371.366	15.99372
371.578	17.13607
371.79	15.9119
372.002	17.54505
372.214	18.89727
372.425	16.1819
372.637	18.28595
372.849	16.83723
373.061	13.88673
373.273	16.85912
373.484	17.00414
373.696	17.42324
373.908	13.88772
374.12	17.67261
374.331	17.29074
374.543	15.67756
374.755	15.59308
374.967	16.71513
375.178	18.22178
375.39	16.20581
375.602	16.83323
375.813	15.02985
376.025	15.82532
376.236	16.8899
376.448	17.56206
376.66	17.55278
376.871	16.92878
377.083	18.13051
377.294	19.14185
377.506	16.70877
377.717	18.99471
377.929	17.63803
378.14	16.62491
378.352	17.838
378.563	18.20437
378.775	18.88529
378.986	16.31601
379.197	17.54993
379.409	16.39998
379.62	18.19094
379.832	17.84403
380.043	17.09443
380.254	17.68072
380.466	15.92245
380.677	20.74039
380.888	19.96795
381.1	20.81629
381.311	20.20179
381.522	18.01145
381.733	20.90964
381.945	17.55466
382.156	17.38412
382.367	17.08051
382.578	21.10394
382.789	21.44977
383.001	16.96009
383.212	20.19388
383.423	20.20118
383.634	19.40729
383.845	19.03327
384.056	17.7442
384.267	18.14164
384.478	18.22563
384.69	17.08673
384.901	18.97412
385.112	18.75777
385.323	20.56959
385.534	18.64668
385.745	18.7066
385.956	18.57813
386.167	17.62987
386.378	19.04486
386.588	17.64976
386.799	17.65274
387.01	17.01472
387.221	19.53727
387.432	18.65173
387.643	20.91134
387.854	18.29934
388.065	18.34517
388.275	18.47171
388.486	18.03333
388.697	18.78327
388.908	18.36453
389.119	20.16813
389.329	20.84383
389.54	18.97453
389.751	19.34886
389.962	20.70289
390.172	19.32257
390.383	18.88425
390.594	18.46286
390.804	18.57788
391.015	18.76012
391.226	19.6189
391.436	20.26393
391.647	19.98023
391.858	20.2787
392.068	17.76365
392.279	18.19118
392.489	19.92192
392.7	20.48601
392.91	18.55959
393.121	18.57048
393.331	20.1749
393.542	20.84191
393.752	20.24107
393.963	20.10796
394.173	20.08576
394.384	20.38654
394.594	19.87098
394.804	18.52549
395.015	20.02064
395.225	20.39741
395.436	18.508
395.646	20.08664
395.856	19.14547
396.067	18.05515
396.277	20.73386
396.487	20.25485
396.697	19.95319
396.908	20.66618
397.118	20.584
397.328	20.00377
397.538	21.00801
397.749	19.37406
397.959	21.0645
398.169	20.5532
398.379	18.42856
398.589	20.73898
398.8	20.35983
399.01	20.41775
399.22	19.69107
399.43	22.60179
399.64	20.11769
399.85	20.68908
400.06	20.29144
400.27	19.25212
400.48	20.09085
400.69	21.61179
400.9	19.6899
401.11	18.9618
401.32	20.97574
401.53	19.60317
401.74	22.11261
401.95	20.99071
402.16	19.91864
402.37	21.1913
402.58	20.20075
402.79	21.2795
403	21.8153
403.209	20.01722
403.419	22.07067
403.629	20.29255
403.839	21.91241
404.049	22.10029
404.258	20.37389
404.468	19.96699
404.678	21.72846
404.888	21.95325
405.097	20.47882
405.307	20.73793
405.517	21.66895
405.727	21.30795
405.936	20.59773
406.146	21.01923
406.356	22.46934
406.565	20.73038
406.775	20.22699
406.984	20.37694
407.194	23.00562
407.404	20.93603
407.613	21.32949
407.823	21.51626
408.032	22.35236
408.242	21.83967
408.451	20.42862
408.661	20.76513
408.87	23.09784
409.08	20.57095
409.289	21.64802
409.499	21.68038
409.708	21.6156
409.918	19.0936
410.127	21.59161
410.336	22.93031
410.546	22.00516
410.755	20.92019
410.964	20.82589
411.174	20.39517
411.383	21.87923
411.592	21.68755
411.802	20.36913
412.011	22.10049
412.22	21.1768
412.429	23.06766
412.639	22.89117
412.848	22.67486
413.057	23.31494
413.266	22.67638
413.475	21.76354
413.685	22.31823
413.894	22.62597
414.103	22.92673
414.312	22.56684
414.521	21.51185
414.73	22.367
414.939	23.87154
415.148	22.68185
415.357	22.39682
415.566	21.90192
415.776	21.95277
415.985	21.95423
416.194	22.95242
416.403	24.19306
416.611	21.18397
416.82	21.9566
417.029	22.62436
417.238	22.06874
417.447	21.94508
417.656	22.38292
417.865	22.13292
418.074	22.57942
418.283	22.75167
418.492	23.77826
418.7	23.35694
418.909	24.30006
419.118	22.93825
419.327	23.39389
419.536	23.02971
419.744	22.59099
419.953	23.93913
420.162	23.87117
420.371	22.48952
420.579	22.43389
420.788	23.50577
420.997	23.49298
421.205	23.30929
421.414	23.02283
421.623	22.81764
421.831	22.45864
422.04	23.32754
422.249	22.49264
422.457	23.01947
422.666	22.52509
422.874	23.62405
423.083	23.88394
423.291	23.78196
423.5	23.55524
423.708	23.37805
423.917	24.08895
424.125	23.40524
424.334	23.05563
424.542	25.01123
424.751	24.2295
424.959	23.81635
425.167	24.25732
425.376	24.09524
425.584	23.35155
425.793	23.73445
426.001	22.55004
426.209	23.84351
426.418	22.76884
426.626	22.82331
426.834	22.67807
427.042	23.29044
427.251	22.78412
427.459	24.09376
427.667	23.69048
427.875	22.26817
428.084	22.93935
428.292	24.72854
428.5	23.98961
428.708	22.6063
428.916	22.82528
429.124	23.779
429.333	23.41094
429.541	23.50559
429.749	23.72757
429.957	23.88806
430.165	26.08559
430.373	22.40181
430.581	24.08063
430.789	25.17591
430.997	23.41649
431.205	23.39993
431.413	24.12661
431.621	23.64159
431.829	24.84859
432.037	24.03311
432.245	24.77139
432.453	24.59212
432.661	24.15265
432.869	26.00683
433.076	23.62013
433.284	24.20133
433.492	24.94158
433.7	25.42806
433.908	23.8654
434.116	24.19748
434.323	24.06898
434.531	23.90138
434.739	24.62261
434.947	24.90336
435.154	24.8137
435.362	24.16328
435.57	24.03286
435.778	23.76464
435.985	24.53766
436.193	23.75601
436.401	25.52101
436.608	24.37394
436.816	24.14021
437.023	25.83629
437.231	26.42609
437.439	24.63861
437.646	25.16631
437.854	24.96426
438.061	25.48012
438.269	24.50872
438.476	25.47948
438.684	25.1544
438.891	24.64619
439.099	24.14909
439.306	23.79766
439.514	23.98988
439.721	25.34643
439.929	24.35453
440.136	25.38518
440.343	25.12542
440.551	24.58199
440.758	26.08619
440.965	25.096
441.173	24.74797
441.38	23.97183
441.587	24.7528
441.795	24.10473
442.002	24.78064
442.209	24.80559
442.416	25.17908
442.624	25.10997
442.831	25.09722
443.038	24.40686
443.245	23.9277
443.452	24.5846
443.66	25.74975
443.867	24.71443
444.074	24.76204
444.281	24.58726
444.488	25.00761
444.695	25.27498
444.902	24.8342
445.109	25.91217
445.316	25.13311
445.523	24.97382
445.73	24.60696
445.937	25.25201
446.144	25.81146
446.351	25.42488
446.558	24.44009
446.765	25.64086
446.972	25.76014
447.179	24.8871
447.386	25.9591
447.593	24.53302
447.8	25.82231
448.007	24.63992
448.214	24.62602
448.42	24.42115
448.627	25.85606
448.834	24.73638
449.041	24.56359
449.248	24.51925
449.454	25.69099
449.661	26.44112
449.868	24.63243
450.075	24.4664
450.281	22.9597
450.488	24.10021
450.695	24.30931
450.901	24.44058
451.108	24.86608
451.315	26.17019
451.521	25.13009
451.728	26.03491
451.935	24.71424
452.141	25.22129
452.348	25.21106
452.554	25.08066
452.761	24.83967
452.967	26.67743
453.174	25.35078
453.38	25.55591
453.587	24.20269
453.793	25.42836
454	26.04603
454.206	27.18941
454.413	26.27391
454.619	26.08353
454.825	24.6895
455.032	26.05245
455.238	26.26565
455.445	24.22557
455.651	25.53164
455.857	23.76412
456.064	25.17891
456.27	25.17113
456.476	25.23251
456.682	24.33083
456.889	25.79662
457.095	26.02753
457.301	27.6853
457.507	25.75726
457.714	25.8207
457.92	25.70531
458.126	25.20363
458.332	25.82938
458.538	25.61252
458.744	25.93808
458.951	25.84057
459.157	27.41239
459.363	25.9284
459.569	25.64889
459.775	26.2152
459.981	25.04044
460.187	25.50224
460.393	25.95344
460.599	26.52533
460.805	25.54802
461.011	25.41552
461.217	26.00972
461.423	26.23152
461.629	25.14826
461.835	26.08706
462.041	25.39943
462.247	26.90608
462.453	25.31829
462.658	25.40681
462.864	26.08768
463.07	26.25487
463.276	26.09987
463.482	25.94963
463.688	27.33943
463.893	25.33788
464.099	25.70646
464.305	27.61099
464.511	25.54992
464.716	25.72343
464.922	26.64355
465.128	25.19712
465.333	27.55815
465.539	26.66773
465.745	25.91375
465.95	26.22342
466.156	28.59859
466.362	27.00948
466.567	26.06803
466.773	25.72849
466.978	27.416
467.184	25.19981
467.389	24.11939
467.595	26.31499
467.8	25.083
468.006	27.21201
468.211	27.16303
468.417	24.95767
468.622	26.74308
468.828	26.78882
469.033	26.33209
469.239	28.69127
469.444	25.80821
469.649	26.87124
469.855	26.13089
470.06	26.47395
470.266	25.56497
470.471	26.71702
470.676	26.6392
470.881	24.78018
471.087	27.81894
471.292	27.74167
471.497	25.05647
471.703	26.14261
471.908	25.8623
472.113	26.56006
472.318	27.15392
472.523	25.11667
472.729	26.64351
472.934	26.85237
473.139	25.93426
473.344	26.68116
473.549	27.46102
473.754	25.56339
473.959	28.28562
474.164	25.65119
474.369	26.19128
474.575	27.27554
474.78	26.3508
474.985	25.71752
475.19	24.91105
475.395	25.97981
475.6	26.38827
475.804	27.80182
476.009	26.67256
476.214	26.51821
476.419	26.01277
476.624	25.03353
476.829	25.74064
477.034	27.09025
477.239	25.74567
477.444	26.60054
477.648	26.9887
477.853	27.14213
478.058	26.22797
478.263	25.72775
478.468	25.47869
478.672	25.38998
478.877	27.56369
479.082	28.13861
479.287	26.92624
479.491	26.4768
479.696	25.44291
479.901	27.31019
480.105	27.19648
480.31	25.96132
480.515	26.43993
480.719	28.71991
480.924	26.13844
481.128	25.78141
481.333	26.84261
481.538	26.8629
481.742	26.4681
481.947	27.03232
482.151	27.28165
482.356	26.89768
482.56	29.18256
482.765	32.96465
482.969	38.75043
483.174	43.86304
483.378	49.93468
483.582	51.76018
483.787	54.58759
483.991	55.51611
484.196	55.30819
484.4	53.96988
484.604	52.93075
484.809	48.43697
485.013	44.88811
485.217	40.17327
485.422	35.83865
485.626	32.67626
485.83	31.11404
486.034	30.5482
486.239	31.57125
486.443	32.80916
486.647	34.11379
486.851	36.25111
487.055	38.69741
487.26	39.347
487.464	40.96198
487.668	40.59971
487.872	41.01228
488.076	41.01756
488.28	39.11437
488.484	36.52589
488.688	34.67563
488.892	32.67727
489.096	30.19867
489.3	27.80057
489.504	26.17468
489.708	26.66615
489.912	26.87525
490.116	27.11298
490.32	26.54645
490.524	27.40632
490.728	28.44318
490.932	30.3951
491.136	32.2228
491.34	34.07796
491.544	34.58389
491.748	34.471
491.951	34.28051
492.155	33.10319
492.359	31.80905
492.563	29.00267
492.767	26.90505
492.97	25.59441
493.174	25.48603
493.378	25.95179
493.582	25.67637
493.785	26.57953
493.989	26.96557
494.193	26.74734
494.396	26.60266
494.6	27.52135
494.804	26.98084
495.007	26.47452
495.211	26.64349
495.414	26.96495
495.618	27.33991
495.822	28.04521
496.025	27.34286
496.229	27.85803
496.432	26.33084
496.636	26.92233
496.839	26.71449
497.043	28.25918
497.246	27.11854
497.45	26.58749
497.653	26.61817
497.856	27.03605
498.06	26.07644
498.263	26.53238
498.467	26.50562
498.67	27.67552
498.873	27.35187
499.077	26.70718
499.28	26.74748
499.483	27.22137
499.686	27.57705
499.89	27.23045
500.093	27.4361
500.296	26.25154
500.499	28.39104
500.703	27.06335
500.906	27.32864
501.109	28.65391
501.312	27.19504
501.515	27.01121
501.719	27.50689
501.922	28.28474
502.125	27.34231
502.328	27.03224
502.531	26.31324
502.734	27.1661
502.937	25.80452
503.14	27.25414
503.343	26.26336
503.546	26.76647
503.749	26.49463
503.952	27.75152
504.155	26.4678
504.358	27.59373
504.561	27.23082
504.764	26.06612
504.967	27.21453
505.17	27.14527
505.373	28.57662
505.576	27.23726
505.778	27.77461
505.981	26.80109
506.184	28.26677
506.387	25.93347
506.59	28.90889
506.793	28.24635
506.995	27.88774
507.198	25.68355
507.401	27.72928
507.604	27.77168
507.806	26.59927
508.009	26.7232
508.212	27.83657
508.414	26.8628
508.617	26.90084
508.82	27.30349
509.022	28.26302
509.225	27.45
509.427	25.81424
509.63	28.11364
509.833	26.99953
510.035	26.76019
510.238	25.83017
510.44	28.12153
510.643	25.50663
510.845	29.06013
511.048	27.66081
511.25	26.79999
511.453	27.15918
511.655	27.63066
511.858	26.96229
512.06	27.99612
512.262	27.36633
512.465	28.09701
512.667	26.82586
512.869	26.29891
513.072	27.5624
513.274	27.84326
513.476	27.5395
513.679	27.68621
513.881	25.97531
514.083	28.48988
514.286	26.68001
514.488	26.59079
514.69	26.35644
514.892	25.98545
515.094	27.91833
515.297	26.52871
515.499	27.39321
515.701	26.52762
515.903	28.89741
516.105	28.95999
516.307	27.94533
516.509	25.8394
516.711	26.29665
516.913	27.60968
517.116	27.63919
517.318	27.3178
517.52	28.63648
517.722	28.08001
517.924	26.49456
518.126	27.81646
518.328	26.82486
518.529	27.55052
518.731	28.5878
518.933	26.73309
519.135	27.03389
519.337	28.00484
519.539	27.50365
519.741	25.58693
519.943	27.03392
520.145	26.83864
520.346	27.5965
520.548	26.85181
520.75	27.43592
520.952	27.01799
521.153	27.36618
521.355	27.63325
521.557	26.26703
521.759	27.48493
521.96	27.16689
522.162	26.35465
522.364	28.26692
522.565	26.52643
522.767	28.19297
522.969	28.43137
523.17	27.72404
523.372	27.69762
523.573	26.91922
523.775	27.3343
523.977	26.47157
524.178	29.06683
524.38	27.15981
524.581	28.4256
524.783	27.30513
524.984	28.11514
525.186	27.40567
525.387	27.83665
525.589	27.20539
525.79	26.90252
525.991	26.56886
526.193	27.35358
526.394	26.13963
526.596	27.20136
526.797	27.30554
526.998	27.0612
527.2	26.74887
527.401	28.31514
527.602	30.14872
527.803	34.70288
528.005	37.48201
528.206	40.06496
528.407	41.92793
528.608	42.22105
528.81	42.39286
529.011	41.32386
529.212	41.5143
529.413	38.76497
529.614	35.80551
529.815	33.01205
530.017	29.90253
530.218	26.80352
530.419	26.4853
530.62	27.08404
530.821	27.27392
531.022	26.38915
531.223	27.86965
531.424	27.78567
531.625	27.77191
531.826	27.55686
532.027	27.87657
532.228	28.78507
532.429	27.9951
532.63	27.54284
532.831	28.355
533.032	28.81695
533.233	29.72203
533.433	29.09503
533.634	29.1901
533.835	27.646
534.036	26.74162
534.237	26.79514
534.438	26.5366
534.638	26.207
534.839	26.53637
535.04	27.42659
535.241	27.09233
535.441	28.88742
535.642	28.00557
535.843	26.90425
536.043	26.73527
536.244	26.92308
536.445	26.94404
536.645	27.91364
536.846	27.33723
537.047	28.05158
537.247	26.70804
537.448	26.92007
537.648	27.0075
537.849	26.97493
538.049	26.91465
538.25	27.66068
538.451	27.50373
538.651	26.48906
538.851	27.78263
539.052	28.51168
539.252	28.4701
539.453	27.50338
539.653	28.10752
539.854	28.06684
540.054	28.14498
540.254	28.93815
540.455	28.73191
540.655	27.59238
540.855	29.32837
541.056	30.92337
541.256	31.03027
541.456	32.13454
541.657	31.58792
541.857	31.89607
542.057	29.80684
542.257	28.46344
542.458	28.00352
542.658	27.62015
542.858	26.51379
543.058	28.04245
543.258	27.78883
543.458	26.34462
543.659	26.55785
543.859	28.21168
544.059	28.0294
544.259	27.18501
544.459	28.04558
544.659	26.92784
544.859	27.88669
545.059	27.22344
545.259	28.38845
545.459	27.98865
545.659	28.80996
545.859	27.8748
546.059	28.05884
546.259	27.09351
546.459	26.3759
546.659	26.71124
546.859	28.12819
547.059	27.78437
547.258	27.85491
547.458	27.85869
547.658	26.50315
547.858	26.40272
548.058	27.47717
548.258	26.95562
548.457	26.45268
548.657	29.96285
548.857	27.40687
549.057	28.38956
549.256	28.02863
549.456	27.34701
549.656	25.83011
549.855	29.67325
550.055	27.45247
550.255	29.91079
550.454	28.45559
550.654	29.1357
550.853	29.33502
551.053	28.81095
551.253	28.61417
551.452	28.5438
551.652	27.11715
551.851	26.56201
552.051	27.69399
552.25	27.75481
552.45	27.27671
552.649	27.59687
552.849	26.80242
553.048	27.68993
553.248	28.41478
553.447	26.96174
553.646	28.62269
553.846	29.07089
554.045	28.8429
554.244	26.24917
554.444	29.63161
554.643	26.81074
554.842	29.59399
555.042	30.3458
555.241	27.25093
555.44	26.76464
555.64	28.4804
555.839	30.31791
556.038	28.85775
556.237	26.94509
556.436	27.87883
556.636	28.51761
556.835	26.81971
557.034	30.10484
557.233	28.06003
557.432	26.31954
557.631	29.42071
557.83	27.56551
558.029	27.27779
558.228	27.23459
558.427	26.65581
558.626	28.50091
558.825	26.7158
559.024	28.1409
559.223	30.14167
559.422	27.75933
559.621	28.58504
559.82	25.05154
560.019	28.15053
560.218	27.75954
560.417	25.09044
560.616	27.74622
560.815	32.14003
561.014	26.3218
561.212	29.83092
561.411	28.2874
561.61	26.15298
561.809	27.81622
562.008	29.97826
562.206	27.65652
562.405	28.68326
562.604	27.611
562.803	28.25736
563.001	27.57561
563.2	26.196
563.399	28.35416
563.597	26.46931
563.796	27.89338
563.995	26.82293
564.193	28.86255
564.392	27.70067
564.59	30.83405
564.789	26.00734
564.988	27.65732
565.186	28.49094
565.385	28.05862
565.583	27.79271
565.782	27.76795
565.98	27.56593
566.179	27.69827
566.377	26.57989
566.575	27.13335
566.774	29.10479
566.972	28.72848
567.171	30.16366
567.369	29.14523
567.567	27.93546
567.766	28.19821
567.964	25.37228
568.162	28.64882
568.361	29.11931
568.559	27.94544
568.757	28.6632
568.956	28.07564
569.154	27.7295
569.352	29.00378
569.55	28.23104
569.748	28.10534
569.947	26.8259
570.145	27.15536
570.343	26.78552
570.541	29.27321
570.739	26.86518
570.937	28.40231
571.135	28.75486
571.333	30.13138
571.532	30.05044
571.73	28.41994
571.928	29.57075
572.126	28.42063
572.324	27.43935
572.522	29.27402
572.72	31.0604
572.918	27.75489
573.116	28.21308
573.313	27.78466
573.511	27.96344
573.709	27.60743
573.907	28.95847
574.105	27.68874
574.303	26.2708
574.501	26.51689
574.699	28.59576
574.896	28.59059
575.094	28.77343
575.292	26.55415
575.49	29.09141
575.688	27.59593
575.885	29.59124
576.083	30.59151
576.281	28.64485
576.478	27.30722
576.676	28.60305
576.874	26.31385
577.071	27.64868
577.269	31.00807
577.467	28.1647
577.664	27.82339
577.862	29.17317
578.059	26.96038
578.257	29.44498
578.455	27.5484
578.652	27.83754
578.85	25.14184
579.047	28.39306
579.245	27.92384
579.442	27.42438
579.64	27.93561
579.837	25.63726
580.034	31.61178
580.232	27.47808
580.429	26.24369
580.627	28.991
580.824	29.8104
581.021	28.90674
581.219	26.97372
581.416	26.77768
581.613	30.67277
581.811	30.12665
582.008	26.97219
582.205	29.28565
582.402	28.47075
582.6	30.90999
582.797	28.2031
582.994	28.80853
583.191	29.10748
583.388	28.01337
583.586	29.5612
583.783	29.80243
583.98	27.00716
584.177	28.59541
584.374	24.21569
584.571	28.30894
584.768	27.8195
584.965	27.53765
585.162	29.20876
585.359	30.96239
585.556	28.01515
585.753	28.61959
585.95	26.13819
586.147	26.90716
586.344	29.09705
586.541	27.87039
586.738	26.32405
586.935	27.81693
587.132	26.90029
587.329	30.03483
587.526	28.08501
587.722	35.83734
587.919	26.07148
588.116	29.20168
588.313	30.71482
588.51	31.89588
588.706	27.83956
588.903	29.28086
589.1	29.9214
589.297	32.86392
589.493	28.36609
589.69	29.15012
589.887	27.80369
590.083	26.75665
590.28	27.07249
590.477	29.55301
590.673	29.85349
590.87	30.52502
591.067	27.93155
591.263	29.20075
591.46	29.06613
591.656	28.07078
591.853	30.58508
592.049	26.84044
592.246	27.52494
592.442	30.57551
592.639	30.42234
592.835	26.66671
593.032	29.06887
593.228	26.73592
593.425	26.55857
593.621	26.3802
593.817	28.91216
594.014	27.3758
594.21	28.89079
594.406	29.96415
594.603	29.39584
594.799	27.71833
594.995	24.8318
595.192	30.30623
595.388	27.93772
595.584	28.06941
595.78	26.47494
595.977	31.69985
596.173	31.43184
596.369	28.46722
596.565	27.34521
596.761	26.61732
596.957	30.41548
597.154	27.51652
597.35	27.42874
597.546	27.1127
597.742	28.93793
597.938	28.26085
598.134	26.74548
598.33	28.12926
598.526	30.47353
598.722	28.80509
598.918	31.16187
599.114	29.44705
599.31	27.04275
599.506	28.8264
599.702	26.98335
599.898	28.63914
600.094	29.94951
600.29	29.96708
600.485	30.10379
600.681	27.57959
600.877	31.95569
601.073	28.81204
601.269	31.86918
601.465	30.97654
601.66	27.54622
601.856	26.09247
602.052	31.46062
602.248	28.6788
602.443	25.87452
602.639	26.9225
602.835	27.20778
603.03	27.56276
603.226	30.30785
603.422	27.29508
603.617	28.46316
603.813	28.001
604.009	27.77201
604.204	29.95157
604.4	26.13229
604.595	29.6221
604.791	26.67403
604.986	28.58133
605.182	26.95156
605.377	27.45367
605.573	27.28157
605.768	28.19283
605.964	28.81744
606.159	29.0903
606.355	30.26922
606.55	27.5144
606.746	29.95804
606.941	27.87032
607.136	32.00352
607.332	33.40806
607.527	26.5585
607.722	29.29485
607.918	28.66935
608.113	27.73361
608.308	30.21462
608.503	30.01779
608.699	29.67513
608.894	29.72445
609.089	27.54344
609.284	29.15599
609.479	28.05263
609.675	29.82963
609.87	27.76551
610.065	29.8642
610.26	29.88214
610.455	29.78839
610.65	27.88921
610.845	28.7007
611.04	30.13241
611.235	28.16078
611.43	27.818
611.625	26.41356
611.82	31.31399
612.015	26.82759
612.21	31.5371
612.405	25.67676
612.6	31.80726
612.795	30.73884
612.99	29.97066
613.185	26.40693
613.38	27.26463
613.575	29.08315
613.77	33.75357
613.965	25.64014
614.159	27.05978
614.354	31.21983
614.549	30.82923
614.744	30.52754
614.938	26.88903
615.133	25.95384
615.328	31.65719
615.523	31.02866
615.717	35.16643
615.912	27.98098
616.107	29.41133
616.301	28.33854
616.496	27.52514
616.691	32.42516
616.885	30.49826
617.08	34.90536
617.274	31.19729
617.469	33.53546
617.664	30.4479
617.858	27.88116
618.053	29.57044
618.247	28.47303
618.442	24.63729
618.636	31.6161
618.831	27.53674
619.025	27.75138
619.219	34.09384
619.414	22.56302
619.608	29.16216
619.803	27.77602
619.997	33.7776
620.191	31.62853
620.386	29.90037
620.58	29.17929
620.774	25.3915
620.969	26.09196
621.163	29.72756
621.357	26.74707
621.551	28.34872
621.746	29.37573
621.94	29.04938
622.134	36.69985
622.328	34.13547
622.522	25.83472
622.716	31.78119
622.911	31.22109
623.105	31.25301
623.299	30.45836
623.493	35.76925
623.687	27.44982
623.881	28.34042
624.075	30.44794
624.269	32.31867
624.463	25.45254
624.657	26.0667
624.851	30.49167
625.045	31.49873
625.239	31.93421
625.433	28.92225
625.627	32.87186
625.821	28.8864
626.015	28.02896
626.209	29.98819
626.403	27.18454
626.596	30.61262
626.79	31.04192
626.984	26.96626
627.178	30.33318
627.372	30.3202
627.565	31.16861
627.759	25.85504
627.953	26.91851
628.147	29.89277
628.34	30.34832
628.534	34.09874
628.728	28.71984
628.921	31.52983
629.115	31.11704
629.309	31.825
629.502	31.77672
629.696	29.72022
629.89	29.38798
630.083	30.36734
630.277	31.06882
630.47	33.66355
630.664	29.18899
630.857	26.34808
631.051	31.30227
631.244	32.56519
631.438	32.28628
631.631	27.91189
631.825	32.91701
632.018	31.38108
632.212	34.52765
632.405	32.26603
632.598	28.26852
632.792	30.48391
632.985	24.65588
633.178	29.39868
633.372	30.10794
633.565	30.10529
633.758	33.29419
633.952	27.6846
634.145	27.92313
634.338	29.15943
634.531	28.53832
634.724	28.39731
634.918	30.32634
635.111	29.24261
635.304	28.71989
635.497	35.2474
635.69	30.26694
635.883	33.3031
636.077	27.43357
636.27	31.32778
636.463	30.34013
636.656	31.49115
636.849	29.2995
637.042	31.22514
637.235	33.61914
637.428	32.0043
637.621	31.47681
637.814	33.46168
638.007	34.10116
638.2	34.19046
638.393	35.93592
638.586	27.06513
638.778	29.22941
638.971	30.56382
639.164	35.4486
639.357	31.58994
639.55	34.92657
639.743	33.50675
639.935	33.12794
640.128	35.91297
640.321	33.22539
640.514	31.96465
640.707	37.81146
640.899	32.53148
641.092	26.21022
641.285	51.35988
641.477	24.84512
641.67	37.62386
641.863	34.58035
642.055	31.8018
642.248	31.1441
642.441	30.03263
642.633	32.38944
642.826	34.01012
643.018	35.13586
643.211	37.69673
643.403	35.62835
643.596	38.10809
643.788	36.66954
643.981	30.51309
644.173	34.76608
644.366	31.43603
644.558	26.51404
644.751	34.70266
644.943	27.35847
645.135	36.43239
645.328	37.4788
645.52	33.85095
645.712	35.10571
645.905	41.70989
646.097	29.43676
646.289	32.1538
646.482	38.03139
646.674	30.04911
646.866	35.36438
647.058	33.82543
647.251	28.63602
647.443	30.39878
647.635	31.88541
647.827	28.44179
648.019	29.68366
648.211	32.15581
648.404	31.66324
648.596	36.77198
648.788	33.49955
648.98	32.79259
649.172	33.79572
649.364	33.41167
649.556	26.70229
649.748	41.68102
649.94	28.60284
650.132	34.27491
650.324	29.68525
650.516	30.87225
650.708	36.63828
650.9	27.94722
651.092	27.26787
651.284	28.05661
651.476	29.07636
651.667	34.57966
651.859	36.34952
652.051	32.86873
652.243	32.36075
652.435	31.01032
652.627	34.39366
652.818	34.06906
653.01	27.12956
653.202	29.10276
653.394	31.57818
653.585	34.60467
653.777	47.97214
653.969	36.94113
654.16	36.84846
654.352	29.59105
654.544	32.57763
654.735	35.81206
654.927	34.17006
655.118	38.15627
655.31	35.66957
655.502	36.7721
655.693	30.99793
655.885	35.52609
656.076	38.62112
656.268	33.99589
656.459	37.93726
656.651	37.55327
656.842	31.57432
657.034	31.07498
657.225	35.84398
657.416	38.41743
657.608	38.14769
657.799	33.11723
657.99	37.858
658.182	31.55396
658.373	31.83781
658.564	35.9933
658.756	33.89996
658.947	32.90566
659.138	30.16156
659.33	31.18669
659.521	30.82945
659.712	32.4083
659.903	31.80899
660.094	31.01685
660.286	28.14171
660.477	39.08359
660.668	35.06394
660.859	33.05777
661.05	28.14748
661.241	35.3095
661.432	34.91294
661.623	32.11959
661.814	32.61499
662.006	28.05362
662.197	35.47243
662.388	36.85075
662.579	35.17094
662.77	38.89335
662.96	44.13828
663.151	37.04967
663.342	28.30492
663.533	36.52838
663.724	33.95321
663.915	40.88762
664.106	34.39037
664.297	41.86136
664.488	37.39536
664.678	32.84068
664.869	38.18147
665.06	37.65949
665.251	36.14269
665.442	37.33623
665.632	31.66354
665.823	42.20588
666.014	24.14704
666.204	38.33895
666.395	40.93684
666.586	45.67682
666.776	38.63642
666.967	42.55771
667.158	36.28433
667.348	41.56583
667.539	31.52878
667.729	38.68734
667.92	32.30329
668.111	39.39996
668.301	37.41705
668.492	34.81549
668.682	36.00369
668.873	34.64968
669.063	31.07133
669.253	36.24427
669.444	38.30369
669.634	35.22715
669.825	42.93517
670.015	39.91642
670.206	32.95611
670.396	44.2227
670.586	35.1932
670.777	37.55007
670.967	27.59945
671.157	35.27759
671.347	33.22403
671.538	42.19936
671.728	38.27524
671.918	44.06936
672.108	41.237
672.299	36.46171
672.489	38.12593
672.679	33.68096
672.869	38.37581
673.059	44.96428
673.249	38.68114
673.44	33.27527
673.63	36.38576
673.82	40.6285
674.01	32.96433
674.2	38.91972
674.39	49.69245
674.58	39.85304
674.77	37.85785
674.96	35.97817
675.15	55.58572
675.34	42.85483
675.53	37.5288
675.72	36.10272
675.91	31.53237
676.099	45.38308
676.289	46.62088
676.479	42.29697
676.669	36.33833
676.859	39.64492
677.049	33.35948
677.238	37.83766
677.428	47.27153
677.618	38.77184
677.808	42.16247
677.997	40.49773
678.187	33.20633
678.377	37.52121
678.567	36.48768
678.756	36.22634
678.946	36.96215
679.136	32.20669
679.325	34.48554
679.515	33.80563
679.704	32.52307
679.894	39.04488
680.084	37.73282
680.273	41.83518
680.463	34.35444
680.652	33.71731
680.842	36.26713
681.031	40.39273
681.221	33.50851
681.41	39.59836
681.6	36.07106
681.789	40.70778
681.978	43.05824
682.168	37.95519
682.357	38.44311
682.547	40.34339
682.736	38.18454
682.925	43.0727
683.115	43.09187
683.304	42.05139
683.493	40.44179
683.682	41.46445
683.872	40.40418
684.061	44.55008
684.25	41.38126
684.439	47.18732
684.629	42.16074
684.818	55.21452
685.007	38.70358
685.196	38.28706
685.385	46.72581
685.574	41.40718
685.763	42.09896
685.952	40.55295
686.142	34.07334
686.331	47.0917
686.52	31.79132
686.709	47.38746
686.898	46.42508
687.087	43.61448
687.276	47.51862
687.465	44.08878
687.654	39.24197
687.842	48.38847
688.031	34.13209
688.22	45.9147
688.409	40.89841
688.598	41.30988
688.787	53.2245
688.976	41.42994
689.165	49.10413
689.353	38.58438
689.542	43.23568
689.731	44.33078
689.92	51.53366
690.108	46.12686
690.297	38.82222
690.486	41.30256
690.675	46.19385
690.863	49.72088
691.052	51.25813
691.241	44.40226
691.429	43.14137
691.618	49.90878
691.806	36.78278
691.995	40.76658
692.184	42.00511
692.372	41.07542
692.561	43.28654
692.749	42.49885
692.938	55.88893
693.126	45.73638
693.315	40.50643
693.503	47.43826
693.692	47.12253
693.88	49.59193
694.068	56.63404
694.257	43.29044
694.445	46.38806
694.634	32.61351
694.822	48.78917
695.01	51.15614
695.199	51.55875
695.387	53.36128
695.575	51.36082
695.763	43.8757
695.952	42.0127
696.14	35.87512
696.328	41.55035
696.516	44.2556
696.705	45.96993
696.893	44.38276
697.081	34.4773
697.269	47.24879
697.457	38.24288
697.645	37.29774
697.833	47.8888
698.021	38.59968
698.21	40.06871
698.398	41.54482
698.586	36.26862
698.774	34.76797
698.962	39.62644
699.15	36.91547
699.338	34.02098
699.526	42.89704
699.714	37.88781
699.901	38.0375
700.089	46.26356
700.277	37.80609
700.465	40.8945
700.653	46.42736
700.841	45.54028
701.029	39.36577
701.217	50.05328
701.404	44.97654
701.592	53.68207
701.78	56.02256
701.968	43.33817
702.155	42.59743
702.343	36.91272
702.531	52.55836
702.718	48.10219
702.906	43.79793
703.094	42.04628
703.281	53.41404
703.469	46.13252
703.657	53.24103
703.844	67.69146
704.032	57.3076
704.219	42.40386
704.407	48.62461
704.595	55.70485
704.782	46.4385
704.97	44.97707
705.157	44.59973
705.345	57.13003
705.532	64.24594
705.719	49.10298
705.907	56.28191
706.094	47.8344
706.282	58.58064
706.469	45.97991
706.656	48.66822
706.844	46.32996
707.031	54.96838
707.218	50.19217
707.406	59.43454
707.593	53.21783
707.78	51.34036
707.968	48.08801
708.155	43.06451
708.342	52.3872
708.529	50.26333
708.716	50.36179
708.904	61.0242
709.091	52.25681
709.278	40.58235
709.465	64.46347
709.652	61.24705
709.839	58.80588
710.026	50.37767
710.213	38.74614
710.4	51.74951
710.587	54.57722
710.774	58.39487
710.961	55.95558
711.148	49.59138
711.335	57.02168
711.522	48.92945
711.709	51.99313
711.896	66.203
712.083	56.98468
712.27	43.62129
712.457	51.18456
712.644	40.1846
712.831	64.54251
713.017	52.30648
713.204	55.86119
713.391	47.51783
713.578	59.91513
713.765	59.98248
713.951	55.00456
714.138	75.39446
714.325	56.39395
714.512	53.34199
714.698	46.41586
714.885	64.33789
715.072	54.55158
715.258	53.84277
715.445	47.26604
715.631	62.68193
715.818	34.95353
716.005	47.73516
716.191	56.6129
716.378	50.00225
716.564	60.42448
716.751	46.21551
716.937	48.92985
717.124	61.79993
717.31	46.17905
717.497	65.42364
717.683	48.24954
717.869	73.57904
718.056	50.94432
718.242	59.01644
718.429	53.7863
718.615	46.01004
718.801	55.60585
718.988	62.82461
719.174	59.25884
719.36	53.66814
719.547	66.64535
719.733	57.1352
719.919	59.59378
720.105	63.40722
720.291	56.54418
720.478	58.26068
720.664	56.28142
720.85	53.26332
721.036	81.22563
721.222	70.4698
721.408	56.90145
721.595	75.63265
721.781	73.17091
721.967	67.56656
722.153	75.30098
722.339	65.12218
722.525	61.58043
722.711	48.9072
722.897	46.46931
723.083	56.08615
723.269	67.94411
723.455	81.95065
723.641	85.68407
723.827	60.69287
724.012	63.53719
724.198	56.32862
724.384	71.69637
724.57	65.73953
724.756	46.06705
724.942	42.88196
725.127	69.00112
725.313	73.21177
725.499	72.34485
725.685	76.375
725.87	64.63523
726.056	51.34575
726.242	73.99454
726.428	46.07801
726.613	66.87134
726.799	57.40244
726.985	50.7083
727.17	45.85533
727.356	74.33831
727.541	51.81413
727.727	58.3689
727.913	67.2581
728.098	55.27238
728.284	66.78087
728.469	48.6492
728.655	51.90202
728.84	66.65558
729.026	69.1826
729.211	69.12801
729.397	63.63052
729.582	66.71132
729.767	60.23449
729.953	63.6019
730.138	71.07446
730.323	40.69918
730.509	50.81675
730.694	76.89202
730.879	64.31845
731.065	61.27989
731.25	82.52642
731.435	66.866
731.621	46.19358
731.806	55.21254
731.991	63.58464
732.176	49.94072
732.361	72.38255
732.547	63.3124
732.732	46.73896
732.917	83.80173
733.102	50.91771
733.287	52.63383
733.472	61.79417
733.657	60.96034
733.842	47.52587
734.027	57.30381
734.212	60.30803
734.397	54.28182
734.582	64.08237
734.767	71.55358
734.952	77.32582
735.137	38.85773
735.322	78.08949
735.507	67.28047
735.692	65.81028
735.877	88.90414
736.062	80.80634
736.247	69.05816
736.431	63.52196
736.616	78.86362
736.801	67.11431
736.986	64.98277
737.171	56.62048
737.355	53.59012
737.54	78.25977
737.725	64.20025
737.909	96.78289
738.094	58.73772
738.279	74.94294
738.463	61.54202
738.648	70.13741
738.833	68.85514
739.017	84.98142
739.202	61.44667
739.386	64.11346
739.571	47.89689
739.756	71.01907
739.94	65.13992
740.125	74.98254
740.309	57.31581
740.494	73.7327
740.678	66.24351
740.863	71.37973
741.047	66.93894
741.231	80.40977
741.416	57.30098
741.6	84.52166
741.785	59.06538
741.969	78.85314
742.153	82.27591
742.338	45.61255
742.522	68.81235
742.706	78.20324
742.89	53.30249
743.075	69.43661
743.259	85.95575
743.443	79.63246
743.627	84.0458
743.812	97.68341
743.996	51.6314
744.18	65.62089
744.364	64.18697
744.548	104.56744
744.732	67.42906
744.916	82.07033
745.1	75.9401
745.285	67.73782
745.469	77.75688
745.653	94.52188
745.837	53.55949
746.021	105.07831
746.205	87.19186
746.389	72.19208
746.573	69.17243
746.757	93.38334
746.94	65.76994
747.124	84.64797
747.308	57.37022
747.492	90.73317
747.676	63.22939
747.86	102.52362
748.044	65.41653
748.227	49.94613
748.411	119.31978
748.595	74.30327
748.779	60.86834
748.963	75.3768
749.146	72.69009
749.33	60.54917
749.514	58.06246
749.697	86.67254
749.881	62.32109
750.065	59.39873
750.248	72.95324
750.432	104.65387
750.616	69.88416
750.799	55.88778
750.983	98.93466
751.166	112.54317
751.35	52.35196
751.533	82.83923
751.717	86.33188
751.9	92.57508
752.084	66.5741
752.267	59.66096
752.451	64.60909
752.634	73.66726
752.818	81.84964
753.001	83.03691
753.184	86.88934
753.368	80.64784
753.551	34.17165
753.734	63.06672
753.918	100.46303
754.101	63.64521
754.284	83.44406
754.467	67.70777
754.651	63.16545
754.834	61.72094
755.017	88.21636
755.2	86.76474
755.384	59.6234
755.567	87.07607
755.75	92.48028
755.933	74.22814
756.116	75.61471
756.299	67.87486
756.482	62.37946
756.665	83.1675
756.848	73.6206
757.032	82.6276
757.215	53.29385
757.398	64.74364
757.581	62.97246
757.764	114.64167
757.947	70.63942
758.129	93.67982
758.312	39.90964
758.495	72.58201
758.678	73.00897
758.861	68.69337
759.044	101.15237
759.227	65.48743
759.41	62.35342
759.592	84.89055
759.775	75.12248
759.958	87.44739
760.141	56.66298
760.324	110.14153
760.506	95.84843
760.689	90.95965
760.872	112.6043
761.054	83.81187
761.237	73.84383
761.42	80.34005
761.602	90.90065
761.785	80.40398
761.968	90.44121
762.15	101.39066
762.333	72.4268
762.515	81.09756
762.698	67.22686
762.88	84.38141
763.063	77.19454
763.245	81.17055
763.428	59.40804
763.61	63.35457
763.793	52.88093
763.975	71.53008
764.158	62.47227
764.34	61.73553
764.522	58.40816
764.705	66.63317
764.887	84.37182
765.069	51.33215
765.252	81.04413
765.434	84.24925
765.616	75.88353
765.799	68.54838
765.981	88.89789
766.163	67.65043
766.345	91.08174
766.528	66.14955
766.71	44.85008
766.892	81.56274
767.074	97.77299
767.256	77.23508
767.438	106.34961
767.62	81.74527
767.802	115.37732
767.985	90.61915
768.167	112.98103
768.349	71.24118
768.531	88.59813
768.713	87.07524
768.895	93.03761
769.077	87.20883
769.259	125.41501
769.441	171.00928
769.623	102.02893
769.804	114.25135
769.986	110.09401
770.168	129.32106
770.35	149.45573
770.532	113.14431
770.714	124.6218
770.896	131.16529
771.077	72.48327
771.259	130.45062
771.441	111.78028
771.623	139.72389
771.804	161.57143
771.986	69.84416
772.168	93.85491
772.35	132.63364
772.531	170.37391
772.713	106.47908
772.894	144.09833
773.076	103.64202
773.258	94.89446
773.439	139.0552
773.621	154.11064
773.802	80.14694
773.984	93.86472
774.166	116.787
774.347	145.14035
774.529	136.9177
774.71	63.93967
774.891	107.20018
775.073	94.99621
775.254	145.25135
775.436	94.41695
775.617	167.1907
775.799	96.13297
775.98	156.77193
776.161	154.61904
776.343	156.73599
776.524	110.68136
776.705	100.43388
776.886	68.32273
777.068	115.42656
777.249	192.19865
777.43	174.64213
777.611	84.96885
777.793	97.69506
777.974	153.01146
778.155	98.97571
778.336	91.33806
778.517	175.40479
778.698	89.6455
778.879	63.54168
779.061	47.95506
779.242	119.67678
779.423	126.04573
779.604	96.01917
779.785	108.22167
779.966	113.41143
780.147	137.5052
780.328	144.75929
780.509	193.03785
780.69	133.37019
780.871	92.47462
781.051	77.57826
781.232	118.53882
781.413	111.95055
781.594	107.15796
781.775	98.16182
781.956	95.75345
782.137	65.26016
782.317	96.38009
782.498	123.03346
782.679	118.68217
782.86	117.89394
783.04	99.25621
783.221	125.89905
783.402	176.67589
783.583	113.97238
783.763	138.04822
783.944	103.03354
784.124	81.95577
784.305	167.80408
784.486	129.01669
784.666	112.46688
784.847	76.26436
785.027	195.01607
785.208	95.2004
785.388	92.43587
785.569	97.31582
785.749	106.20542
785.93	99.86091
786.11	77.15837
786.291	126.39987
786.471	120.2209
786.652	136.05412
786.832	110.53618
787.012	122.28198
787.193	83.57821
787.373	115.12768
787.553	101.67923
787.734	121.48561
787.914	103.99326
788.094	127.69332
788.275	123.28641
788.455	101.35681
788.635	75.51789
788.815	115.4279
788.995	81.34603
789.176	73.81965
789.356	87.98175
789.536	102.81053
789.716	128.13267
789.896	88.96639
790.076	96.88108
790.256	113.61151
790.436	54.17379
790.616	91.37222
790.796	121.11844
790.976	101.62858
791.156	95.2506
791.336	135.23757
791.516	124.19552
791.696	106.8608
791.876	76.31094
792.056	114.83967
792.236	137.01172
792.416	137.00448
792.596	127.85516
792.776	125.30948
792.956	132.59668
793.135	157.2743
793.315	88.95728
793.495	148.85547
793.675	125.33473
793.854	140.50931
794.034	135.9941
794.214	85.36729
794.394	140.68241
794.573	152.78402
794.753	116.92915
794.933	89.58193
795.112	122.24078
795.292	138.17725
795.472	167.90758
795.651	83.21286
795.831	109.58748
796.01	107.55128
796.19	103.48748
796.369	111.47059
796.549	129.47606
796.728	106.28917
796.908	77.2006
797.087	86.41869
797.267	98.64835
797.446	81.09595
797.626	131.13122
797.805	129.43041
797.984	90.837
798.164	132.25996
798.343	90.63272
798.522	120.22259
798.702	111.52661
798.881	79.94463
799.06	107.09585
799.239	64.88181
799.419	88.74839
799.598	160.54448
799.777	129.9267
799.956	154.72922
800.136	99.7807
800.315	88.4312
800.494	131.89962
800.673	145.8185
800.852	133.02321
801.031	140.97856
801.21	129.53706
801.389	103.51348
801.568	116.3866
801.747	172.37411
801.926	113.89701
802.105	168.158
802.284	98.52394
802.463	163.40391
802.642	118.78682
802.821	124.35482
803	157.10694
803.179	144.81693
803.358	153.90581
803.537	99.68928
803.716	116.69306
803.895	105.62889
804.073	113.19645
804.252	98.35268
804.431	130.31593
804.61	110.71625
804.789	151.77121
804.967	102.80609
805.146	99.81575
805.325	182.06402
805.503	127.069
805.682	78.46539
805.861	202.75382
806.039	153.37405
806.218	104.22075
806.397	123.36902
806.575	116.8426
806.754	127.66082
806.932	88.43916
807.111	169.10432
807.289	143.04112
807.468	119.6709
807.646	149.93656
807.825	134.79832
808.003	117.89751
808.182	146.0293
808.36	123.39103
808.539	98.14267
808.717	174.02745
808.895	97.48297
809.074	131.59291
809.252	121.92286
809.43	140.95125
809.609	159.06876
809.787	170.44075
809.965	117.87963
810.144	126.38009
810.322	119.83013
810.5	136.65297
810.678	113.64985
810.856	197.79599
811.035	152.41226
811.213	146.94011
811.391	169.24009
811.569	128.49332
811.747	232.48616
811.925	167.95938
812.103	101.65205
812.281	115.04451
812.459	184.31195
812.637	186.76184
812.816	158.18419
812.994	183.69034
813.171	168.04124
813.349	144.33126
813.527	170.59365
813.705	175.60828
813.883	217.03635
814.061	161.66127
814.239	193.86787
814.417	210.08223
814.595	135.7869
814.773	143.39896
814.95	131.59259
815.128	145.23943
815.306	113.85339
815.484	131.21622
815.662	102.01405
815.839	98.31793
816.017	106.00937
816.195	184.83927
816.372	115.674
816.55	159.80578
816.728	182.21382
816.905	120.91628
817.083	187.18525
817.261	124.58621
817.438	210.27187
817.616	196.38803
817.793	117.39178
817.971	156.45023
818.148	166.09077
818.326	178.00399
818.503	143.61946
818.681	179.38462
818.858	114.7311
819.036	130.31862
819.213	137.45427
819.391	110.09736
819.568	105.08334
819.745	100.91016
819.923	148.06227
820.1	116.17663
820.277	97.65366
820.455	110.12027
820.632	112.48654
820.809	113.83552
820.986	87.67059
821.164	75.1995
821.341	69.71214
821.518	82.24683
821.695	68.13435
821.872	64.50977
822.05	58.95158
822.227	51.56212
822.404	52.62717
822.581	55.65943
822.758	52.31163
822.935	52.21139
823.112	56.31819
823.289	50.78663
823.466	56.89976
823.643	55.2335
823.82	61.45965
823.997	60.67728
824.174	67.69205
824.351	80.30028
824.528	82.06788
824.705	79.55491
824.882	85.50812
825.059	101.76314
825.236	83.4747
825.412	89.10771
825.589	97.95108
825.766	119.90431
825.943	91.80843
826.12	99.96651
826.296	79.45384
826.473	86.76347
826.65	86.28534
826.827	95.07097
827.003	73.65938
827.18	77.02615
827.357	83.52499
827.533	75.83966
827.71	56.65753
827.887	69.90792
828.063	74.71536
828.24	69.43602
828.416	82.17726
828.593	73.04502
828.769	92.80382
828.946	100.79274
829.122	107.16026
829.299	102.76264
829.475	76.89003
829.652	109.63719
829.828	161.2288
830.005	116.0255
830.181	148.93431
830.357	117.76199
830.534	151.97216
830.71	122.11111
830.886	149.1318
831.063	149.06602
831.239	175.87872
831.415	100.22692
831.592	180.6931
831.768	125.82052
831.944	106.97482
832.12	174.81642
832.296	162.36349
832.473	147.42032
832.649	113.65939
832.825	138.73224
833.001	96.33024
833.177	127.46576
833.353	112.93676
833.529	76.83139
833.705	95.52195
833.881	77.16539
834.058	75.75854
834.234	78.15261
834.41	79.16731
834.586	67.85558
834.761	78.41446
834.937	82.62976
835.113	85.08316
835.289	80.36562
835.465	92.57898
835.641	84.5047
835.817	94.65007
835.993	146.52334
836.169	94.26924
836.344	123.76061
836.52	136.52146
836.696	131.68001
836.872	114.27323
837.048	237.99732
837.223	123.04889
837.399	200.07512
837.575	169.19739
837.75	168.31184
837.926	207.4889
838.102	323.95569
838.277	253.79036
838.453	313.57882
838.628	287.53012
838.804	158.64804
838.98	293.31873
839.155	168.99623
839.331	210.82474
839.506	164.51378
839.682	155.9619
839.857	189.76179
840.033	214.29771
840.208	122.06926
840.384	78.94686
840.559	121.02567
840.734	172.96939
840.91	235.25669
841.085	150.61864
841.26	143.62774
841.436	133.40219
841.611	137.23013
841.786	190.14895
841.962	251.98574
842.137	165.98801
842.312	117.98225
842.487	144.97709
842.663	138.8643
842.838	163.88251
843.013	451.33017
843.188	238.50082
843.363	191.2617
843.538	409.85201
843.714	381.28081
843.889	399.88398
844.064	417.95487
844.239	367.90702
844.414	464.18779
844.589	286.19368
844.764	550.06789
844.939	485.7386
845.114	585.83503
845.289	617.55335
845.464	607.16889
845.639	486.85745
845.814	228.12086
845.989	309.77661
846.163	326.98472
846.338	370.3691
846.513	547.13954
846.688	361.73631
846.863	319.41356
847.038	296.7551
847.212	370.63919
847.387	367.2179
847.562	362.54756
847.737	466.07343
847.911	192.32517
848.086	221.53529
848.261	603.84172
848.435	300.12659
848.61	498.01295
848.785	228.75824
848.959	480.75859
849.134	671.10839
849.308	783.09668
849.483	392.13061
849.658	599.48502
849.832	293.55402
850.007	257.48533
850.181	1056.82859
850.356	298.71997
850.53	847.69591
850.705	245.88374
850.879	175.97615
851.053	320.3229
851.228	296.297
851.402	469.96546
851.577	510.38604
851.751	780.905
851.925	369.74128
852.099	209.53546
852.274	242.81221
852.448	339.8956
852.622	516.34192
852.797	350.62857
852.971	372.17888
853.145	366.6858
853.319	1142.37588
853.493	549.39263
853.668	293.20538
853.842	796.2088
854.016	569.97881
854.19	692.23782
854.364	377.73153
854.538	408.87102
854.712	632.35818
854.886	334.73906
855.06	310.79196
855.234	157.43199
855.408	677.24558
855.582	658.00801
855.756	583.14136
855.93	714.16709
856.104	406.4667
856.278	572.9035
856.452	386.32018
856.626	473.16437
856.8	1022.39323
856.973	449.25083
857.147	446.25744
857.321	488.65705
857.495	604.87609
857.669	401.32384
857.842	313.29845
858.016	567.02924
858.19	252.66176
858.364	1393.4766
858.537	326.51744
858.711	374.34578
858.885	343.64794
859.058	314.74206
859.232	174.70705
859.405	212.43471
859.579	537.30187
859.753	469.30726
859.926	323.00915
860.1	180.71596
860.273	358.12246
860.447	623.03963
860.62	350.21664
860.794	782.6759
860.967	398.72505
861.141	696.01096
861.314	1131.91205
861.487	515.637
861.661	686.71293
861.834	747.54056
862.008	525.73236
862.181	418.01804
862.354	403.93271
862.528	465.57448
862.701	339.59678
862.874	235.98505
863.047	333.52406
863.221	355.87645
863.394	180.34891
863.567	627.94461
863.74	152.42003
863.913	533.00131
864.087	528.21049
864.26	636.48797
864.433	327.55968
864.606	975.00458
864.779	352.39012
864.952	195.49782
865.125	291.57651
865.298	353.36486
865.471	348.25999
865.644	888.60623
865.817	598.87719
865.99	581.53
866.163	783.0667
866.336	356.96964
866.509	325.59283
866.682	320.40995
866.855	668.99924
867.028	227.29192
867.2	500.69965
867.373	164.03131
867.546	389.91164
867.719	883.79561
867.892	510.86269
868.064	309.40077
868.237	446.36072
868.41	430.88092
868.583	222.46274
868.755	268.16985
868.928	348.83773
869.101	972.33682
869.273	597.86574
869.446	469.40818
869.619	700.65401
869.791	360.97243
869.964	591.63677
870.136	566.16918
870.309	461.06901
870.481	383.45483
870.654	222.10569
870.826	532.3884
870.999	308.79201
871.171	466.15134
871.344	304.78952
871.516	366.68731
871.689	258.20253
871.861	457.36989
872.033	272.16163
872.206	320.61286
872.378	527.80838
872.55	340.52041
872.723	232.51424
872.895	367.58829
873.067	565.81505
873.24	581.02343
873.412	312.9507
873.584	345.37467
873.756	314.63006
873.928	380.02091
874.101	427.81392
874.273	469.49389
874.445	181.20112
874.617	233.37601
874.789	378.81981
874.961	341.95355
875.133	458.25556
875.305	376.79383
875.477	258.00902
875.649	201.21494
875.821	232.82572
875.993	663.69341
876.165	239.70289
876.337	402.31572
876.509	348.20144
876.681	387.13751
876.853	419.37898
877.025	436.73954
877.197	278.2087
877.369	244.23282
877.541	512.43462
877.712	156.3653
877.884	243.33361
878.056	428.29269
878.228	249.06386
878.4	441.6525
878.571	252.56109
878.743	178.74075
878.915	373.98208
879.086	236.28452
879.258	270.60238
879.43	246.78014
879.601	228.3289
879.773	232.68909
879.945	84.79169
880.116	109.31509
880.288	79.61748
880.459	83.61009
880.631	71.42659
880.802	77.74713
880.974	74.41295
881.145	60.78316
881.317	70.76776
881.488	60.26361
881.66	63.8609
881.831	60.96351
882.002	70.98978
882.174	61.18827
882.345	70.07008
882.517	54.37656
882.688	79.29252
882.859	70.70183
883.03	95.94626
883.202	96.0876
883.373	89.90461
883.544	93.11989
883.715	126.4516
883.887	124.10324
884.058	117.18151
884.229	152.4366
884.4	152.54578
884.571	173.64574
884.742	160.84834
884.914	163.37488
885.085	219.78858
885.256	277.83239
885.427	238.83153
885.598	243.31551
885.769	270.81656
885.94	272.02868
886.111	200.26699
886.282	311.98802
886.453	236.9884
886.624	191.97318
886.795	304.72362
886.966	248.85343
887.136	323.29865
887.307	231.06766
887.478	469.30778
887.649	384.09225
887.82	412.09909
887.991	329.08962
888.161	392.43525
888.332	369.5654
888.503	196.92775
888.674	586.49797
888.844	671.03633
889.015	458.82802
889.186	215.82208
889.356	630.32774
889.527	203.34811
889.698	1196.7607
889.868	346.76339
890.039	428.00665
890.209	355.24215
890.38	468.76933
890.551	410.11375
890.721	527.92676
890.892	522.42793
891.062	341.65446
891.233	391.86377
891.403	377.38501
891.574	262.31458
891.744	362.96376
891.914	401.40666
892.085	380.06388
892.255	163.84814
892.425	683.09252
892.596	450.55239
892.766	473.06253
892.936	550.754
893.107	458.97556
893.277	262.44117
893.447	216.24479
893.618	168.25255
893.788	319.12261
893.958	178.19068
894.128	181.60475
894.298	197.90744
894.468	236.51265
894.639	130.99187
894.809	104.92966
894.979	138.38775
895.149	158.7848
895.319	129.41671
895.489	161.62751
895.659	204.93988
895.829	142.29056
895.999	147.45839
896.169	123.47554
896.339	155.64038
896.509	278.77572
896.679	302.45294
896.849	310.77825
897.019	441.92359
897.189	343.03692
897.358	333.85182
897.528	463.05013
897.698	217.59988
897.868	399.89633
898.038	1080.38442
898.208	838.38735
898.377	227.50484
898.547	940.71826
898.717	1160.47322
898.886	512.33916
899.056	715.14502
899.226	1685.39045
899.395	569.67871
899.565	971.66112
899.735	539.53191
899.904	1236.46151
900.074	1134.36162
900.244	354.64735
900.413	1313.65879
900.583	322.67299
900.752	480.11953
900.922	2350.5127
901.091	139.28905
901.261	734.54334
901.43	748.24915
901.599	665.57391
901.769	7576.80102
901.938	806.59312
902.108	914.64906
902.277	1713.45733
902.446	298.71244
902.616	289.4734
902.785	391.18167
902.954	745.78441
903.124	544.68988
903.293	368.83611
903.462	217.9716
903.631	286.74428
903.801	229.39559
903.97	125.66684
904.139	190.68039
904.308	152.77852
904.477	125.52224
904.646	93.61812
904.816	104.51398
904.985	163.68735
905.154	233.69231
