Data from WindowProjectSample3_Transmission__52__00052.txt Node

Date: Sun May 04 11:24:57 EDT 2025
User: jessi
Spectrometer: SR400872
Trigger mode: 0
Integration Time (sec): 5.000050E-1
Scans to average: 20
Electric dark correction enabled: true
Nonlinearity correction enabled: true
Boxcar width: 0
XAxis mode: Wavelengths
Number of Pixels in Spectrum: 3648
>>>>>Begin Spectral Data<<<<<
184.909	-1310.5308
185.132	-1451.26985
185.355	-1151.16605
185.578	-1071.95879
185.801	850.21748
186.024	-944.77316
186.247	-4951.6257
186.47	-1667.8833
186.693	-163.49629
186.916	-531.35186
187.139	-769.34871
187.362	-2862.29333
187.585	-761.3612
187.808	-5114.43879
188.031	11470.52005
188.254	-2309.03519
188.476	-3228.60479
188.699	-1027.56342
188.922	574.47787
189.145	-1216.03682
189.368	3124.08458
189.591	-2240.90006
189.813	-1478.75786
190.036	-889.8749
190.259	-1072.05244
190.482	-1496.0796
190.705	-2349.45228
190.927	-710.01786
191.15	-1454.21099
191.373	-1044.45287
191.595	-1263.18618
191.818	-1329.0177
192.041	-598.99109
192.263	-1103.87645
192.486	-509.93374
192.709	-1506.3828
192.931	-3184.99997
193.154	-1156.59129
193.377	-1621.85761
193.599	-3176.06219
193.822	-3356.28696
194.044	-3135.49423
194.267	-1734.62306
194.489	-330.48054
194.712	-937.81675
194.934	-1689.67324
195.157	-832.5495
195.379	-1243.28381
195.602	-877.56616
195.824	-1291.70876
196.047	-1981.4798
196.269	-1072.33464
196.492	-1398.57373
196.714	-1194.91164
196.936	-1182.73326
197.159	-878.88525
197.381	-747.65792
197.604	-414.80494
197.826	-2028.51594
198.048	-1115.23223
198.271	-1529.07172
198.493	-1145.36576
198.715	-921.52387
198.938	-2953.60472
199.16	-4123.27423
199.382	-1211.15757
199.604	-1096.11372
199.827	-1851.03805
200.049	-1585.68296
200.271	-1236.26571
200.493	-1404.86163
200.715	-942.4376
200.938	-812.11173
201.16	-903.64503
201.382	-998.52464
201.604	-1274.37995
201.826	-703.49939
202.048	-837.48166
202.27	-1377.55643
202.492	-1413.15145
202.715	-1765.9462
202.937	-1981.63322
203.159	-1358.3075
203.381	-1602.27526
203.603	-979.76044
203.825	-5208.68348
204.047	-1606.96389
204.269	-1368.13772
204.491	-1268.34524
204.713	-1434.21823
204.935	-1297.14437
205.156	-2639.65747
205.378	-2788.94649
205.6	-1436.84804
205.822	-1103.80896
206.044	1179.77258
206.266	-1251.67264
206.488	-880.30265
206.71	-1655.02392
206.932	-1713.5061
207.153	-1109.35745
207.375	-1336.99425
207.597	-1075.72162
207.819	-1087.70457
208.041	-1185.71904
208.262	-1522.39174
208.484	-942.74804
208.706	-2031.08455
208.927	-763.16934
209.149	-1352.56793
209.371	-1202.82984
209.593	-1240.53783
209.814	-636.04367
210.036	-794.37024
210.258	-736.27166
210.479	-953.5732
210.701	-1709.68867
210.922	-1197.57861
211.144	-983.97607
211.366	-1052.03526
211.587	1167.56465
211.809	-1118.26956
212.03	-6400.7884
212.252	881.41956
212.473	-915.74354
212.695	-17083.02491
212.916	-3387.43356
213.138	-1280.64485
213.359	-958.34858
213.581	-1467.79227
213.802	-854.53764
214.024	-1315.51138
214.245	-10495.67009
214.466	-961.64227
214.688	-1361.99245
214.909	-1026.59602
215.131	-2657.55029
215.352	-3580.79737
215.573	-1074.54234
215.795	-1756.4649
216.016	-1481.1064
216.237	-3170.99672
216.459	-1411.65034
216.68	-1065.58202
216.901	-1480.11407
217.122	11439.32188
217.344	-957.96924
217.565	-1302.53513
217.786	-1276.26223
218.007	-886.92776
218.228	-1144.46721
218.45	-1132.1646
218.671	-1143.09907
218.892	-1022.05882
219.113	-1643.89387
219.334	-110.96787
219.555	-1439.65423
219.776	-1484.13115
219.997	-1226.61296
220.219	16535.8662
220.44	-1203.11102
220.661	-3072.88844
220.882	-947.31836
221.103	1534.4518
221.324	-2869.33463
221.545	-1123.3252
221.766	-1294.55496
221.987	-1812.23124
222.208	-2085.86533
222.429	-742.12972
222.65	-662.97474
222.87	-1635.72767
223.091	-3435.36944
223.312	2996.59246
223.533	-1128.58955
223.754	-1549.534
223.975	-2161.91832
224.196	8284.61195
224.417	-8064.88728
224.637	4026.2992
224.858	87.40168
225.079	-1775.62011
225.3	26527.37351
225.521	-1026.07572
225.741	-5070.52466
225.962	7329.35808
226.183	353.01257
226.404	-3555.30442
226.624	2508.61075
226.845	-84439.63652
227.066	-661921.75755
227.286	861.08263
227.507	308.58024
227.728	254.23685
227.948	652.99699
228.169	165.33716
228.389	174.89949
228.61	96.19447
228.831	132.4907
229.051	10.46805
229.272	69.96676
229.492	102.35403
229.713	27.62688
229.933	70.7977
230.154	60.59498
230.374	100.03905
230.595	69.8985
230.815	45.1835
231.036	74.29974
231.256	-10.15481
231.477	126.72948
231.697	74.28936
231.917	81.03457
232.138	114.35941
232.358	232.61481
232.579	189.73328
232.799	34.6789
233.019	188.35005
233.24	241.23723
233.46	77.78548
233.68	118.04142
233.901	80.35169
234.121	48.78745
234.341	24.55983
234.561	-10.89955
234.782	38.54808
235.002	136.3041
235.222	-3.33841
235.442	114.98064
235.662	58.27815
235.883	110.15218
236.103	98.52138
236.323	68.50135
236.543	50.82149
236.763	72.30546
236.983	79.12245
237.203	74.18815
237.423	109.94119
237.643	166.77664
237.864	146.01916
238.084	34.09958
238.304	49.0956
238.524	84.99715
238.744	75.1955
238.964	130.03614
239.184	111.8347
239.404	125.08176
239.624	65.67021
239.843	105.00411
240.063	61.2056
240.283	44.24192
240.503	45.70169
240.723	44.38185
240.943	27.43853
241.163	32.06497
241.383	19.50339
241.603	13.546
241.822	14.7413
242.042	10.65088
242.262	14.05953
242.482	15.08684
242.702	16.52758
242.921	5.2082
243.141	10.64549
243.361	10.05041
243.581	14.49472
243.8	12.44677
244.02	8.3298
244.24	14.15595
244.459	13.98086
244.679	29.02692
244.899	18.68439
245.118	22.44965
245.338	19.44145
245.558	23.69515
245.777	13.39275
245.997	17.01601
246.216	17.15191
246.436	9.888
246.655	6.94515
246.875	5.38879
247.094	10.10611
247.314	3.61692
247.533	6.07252
247.753	6.95631
247.972	5.42131
248.192	2.1776
248.411	3.39483
248.631	5.43856
248.85	7.03532
249.07	6.76535
249.289	9.87898
249.508	6.78711
249.728	11.57867
249.947	11.28984
250.166	14.5269
250.386	6.92993
250.605	11.12683
250.824	18.39673
251.044	12.11914
251.263	38.39056
251.482	23.09017
251.701	18.8686
251.921	0.12012
252.14	5.92384
252.359	7.05214
252.578	15.71088
252.798	5.90917
253.017	14.17852
253.236	6.96095
253.455	9.01159
253.674	17.93148
253.893	7.90457
254.112	13.20537
254.331	19.00016
254.551	14.70273
254.77	8.04207
254.989	22.78532
255.208	17.33258
255.427	26.46078
255.646	21.19091
255.865	32.62324
256.084	15.0841
256.303	18.55213
256.522	22.23411
256.741	5.80956
256.96	5.9497
257.179	14.23995
257.397	17.15054
257.616	9.26941
257.835	10.37943
258.054	23.93688
258.273	17.11383
258.492	17.4846
258.711	10.94241
258.93	5.18127
259.148	7.67703
259.367	7.21358
259.586	9.14097
259.805	4.06235
260.023	7.57474
260.242	5.60095
260.461	4.38454
260.68	2.17627
260.898	6.44093
261.117	2.40285
261.336	1.38428
261.554	5.56717
261.773	5.50176
261.992	1.5678
262.21	5.3833
262.429	6.22648
262.648	10.90747
262.866	12.48482
263.085	9.34037
263.303	7.93282
263.522	14.13812
263.74	13.89959
263.959	23.61868
264.178	12.2983
264.396	10.88311
264.615	7.26393
264.833	17.75053
265.051	14.70077
265.27	17.1486
265.488	17.31682
265.707	11.12161
265.925	17.50299
266.144	7.78883
266.362	9.36291
266.58	9.54595
266.799	8.03729
267.017	9.39476
267.235	8.42413
267.454	5.97859
267.672	2.99792
267.89	6.82371
268.109	7.42748
268.327	7.17768
268.545	1.66984
268.763	6.93964
268.982	2.83772
269.2	7.46472
269.418	4.62932
269.636	4.0792
269.854	7.2381
270.073	5.08574
270.291	3.03317
270.509	3.06511
270.727	7.58447
270.945	11.69505
271.163	11.36903
271.381	2.6826
271.599	4.90253
271.817	7.92039
272.036	2.80993
272.254	5.72136
272.472	3.97662
272.69	3.95646
272.908	4.13905
273.126	6.2934
273.344	8.55686
273.562	2.98924
273.779	4.47769
273.997	6.75445
274.215	6.61109
274.433	4.51636
274.651	7.19716
274.869	7.22658
275.087	4.17179
275.305	6.53287
275.523	4.20316
275.74	4.98064
275.958	8.7623
276.176	12.77043
276.394	4.08848
276.612	5.20458
276.829	5.16079
277.047	4.70166
277.265	4.94931
277.483	5.75451
277.7	6.55521
277.918	5.52745
278.136	10.14471
278.353	4.83837
278.571	2.83208
278.789	7.52119
279.006	1.58266
279.224	4.77957
279.442	8.05925
279.659	5.76716
279.877	3.57783
280.094	7.99733
280.312	1.96615
280.529	5.5979
280.747	1.85388
280.964	4.63893
281.182	8.89934
281.399	4.89904
281.617	5.72048
281.834	4.22032
282.052	3.10801
282.269	5.35924
282.487	4.28948
282.704	3.84481
282.921	3.59692
283.139	5.53675
283.356	6.9823
283.574	6.2099
283.791	2.9239
284.008	8.38484
284.226	4.92031
284.443	5.61308
284.66	6.92634
284.877	6.07958
285.095	3.60909
285.312	2.80968
285.529	1.6898
285.746	1.41191
285.964	3.42113
286.181	2.26854
286.398	3.05038
286.615	4.44403
286.832	4.25321
287.05	1.17218
287.267	2.95362
287.484	3.10214
287.701	4.43895
287.918	3.96827
288.135	4.31948
288.352	1.83581
288.569	2.33807
288.786	3.97733
289.003	2.97331
289.22	5.0448
289.437	3.01077
289.654	4.69733
289.871	4.85803
290.088	4.83565
290.305	3.78317
290.522	3.29467
290.739	3.32252
290.956	5.00651
291.173	5.76383
291.39	5.44409
291.607	3.84775
291.824	3.12887
292.04	2.20489
292.257	4.789
292.474	5.31009
292.691	3.44241
292.908	1.7436
293.125	2.9673
293.341	1.84066
293.558	8.15944
293.775	3.72429
293.992	3.70139
294.208	1.46711
294.425	2.4411
294.642	3.15963
294.858	4.70188
295.075	1.23263
295.292	3.36104
295.508	3.96862
295.725	5.65271
295.942	3.00551
296.158	2.07329
296.375	3.48161
296.591	2.80832
296.808	2.71127
297.024	3.20613
297.241	3.56536
297.458	3.82202
297.674	0.47894
297.891	2.95224
298.107	2.436
298.323	1.73191
298.54	4.24164
298.756	2.15202
298.973	0.96895
299.189	4.61217
299.406	2.12787
299.622	4.46248
299.838	4.69943
300.055	4.19278
300.271	1.01375
300.487	1.8235
300.704	1.9945
300.92	1.17921
301.136	6.24029
301.353	4.82003
301.569	3.35994
301.785	3.53305
302.001	4.17007
302.218	3.87314
302.434	4.0806
302.65	1.52431
302.866	2.6201
303.083	6.48925
303.299	6.20911
303.515	3.25798
303.731	3.77858
303.947	1.19464
304.163	2.21317
304.379	3.45541
304.595	3.8917
304.812	2.4005
305.028	2.02505
305.244	2.789
305.46	4.36987
305.676	4.41191
305.892	5.23789
306.108	3.84313
306.324	2.79027
306.54	6.02789
306.756	4.27014
306.972	3.99337
307.187	2.96974
307.403	5.72659
307.619	2.52788
307.835	5.1714
308.051	5.20994
308.267	1.73238
308.483	4.79331
308.699	4.02447
308.914	3.27076
309.13	3.39338
309.346	0.91425
309.562	1.68503
309.778	0.96816
309.993	4.11132
310.209	3.06945
310.425	1.50463
310.641	2.72268
310.856	1.73701
311.072	1.52023
311.288	3.1023
311.503	3.28396
311.719	0.72705
311.935	0.62772
312.15	3.49245
312.366	3.05241
312.581	3.72137
312.797	3.04315
313.013	4.01733
313.228	2.21958
313.444	3.15174
313.659	1.99482
313.875	3.64386
314.09	3.08328
314.306	5.38455
314.521	4.52269
314.737	4.32535
314.952	3.52668
315.168	3.32308
315.383	3.81636
315.599	2.89722
315.814	2.95091
316.029	4.52413
316.245	1.53284
316.46	1.00413
316.675	5.15947
316.891	6.25255
317.106	7.5498
317.321	4.14182
317.537	3.88141
317.752	4.46329
317.967	4.59134
318.183	2.38595
318.398	2.94766
318.613	4.8896
318.828	5.47959
319.043	4.73008
319.259	3.01277
319.474	3.78808
319.689	5.11929
319.904	0.73619
320.119	4.77509
320.334	3.92287
320.549	3.06927
320.765	5.28071
320.98	3.86894
321.195	4.87974
321.41	3.49288
321.625	4.69725
321.84	6.18366
322.055	6.39828
322.27	2.76573
322.485	1.86544
322.7	3.68539
322.915	5.05473
323.13	2.2165
323.345	5.68012
323.56	4.60138
323.775	4.44384
323.989	4.24062
324.204	3.65146
324.419	4.7298
324.634	1.57981
324.849	3.27182
325.064	6.4275
325.279	4.856
325.493	4.10495
325.708	4.96766
325.923	2.31821
326.138	2.50919
326.352	5.91679
326.567	4.51445
326.782	3.06465
326.997	2.41799
327.211	4.38677
327.426	3.90696
327.641	2.96589
327.855	1.31787
328.07	4.48995
328.285	6.06857
328.499	2.93759
328.714	3.99571
328.928	4.55066
329.143	3.45885
329.358	5.22801
329.572	5.01358
329.787	5.39649
330.001	7.72522
330.216	1.73594
330.43	6.16911
330.645	6.28791
330.859	4.78258
331.074	2.46385
331.288	3.71735
331.503	5.80904
331.717	2.20399
331.931	3.30131
332.146	3.92396
332.36	6.69918
332.575	4.43916
332.789	3.85932
333.003	3.44044
333.218	4.38986
333.432	2.67369
333.646	4.9275
333.86	6.02634
334.075	6.37428
334.289	2.82579
334.503	2.00335
334.717	4.27483
334.932	4.46851
335.146	5.19905
335.36	2.96343
335.574	4.36526
335.788	4.20778
336.003	5.22021
336.217	4.82332
336.431	4.30763
336.645	2.81145
336.859	2.02705
337.073	3.50452
337.287	3.92251
337.501	2.247
337.715	4.22363
337.929	4.51779
338.143	1.95212
338.357	3.5692
338.571	2.36671
338.785	4.44012
338.999	2.98396
339.213	2.84201
339.427	1.66206
339.641	5.23882
339.855	3.04967
340.069	2.50892
340.283	5.01414
340.497	5.99065
340.711	4.11536
340.924	3.24726
341.138	2.22516
341.352	1.58897
341.566	3.74775
341.78	1.10652
341.993	2.72642
342.207	2.34913
342.421	3.84013
342.635	3.30498
342.848	2.71278
343.062	0.34133
343.276	2.50616
343.49	6.51082
343.703	2.65317
343.917	4.7365
344.131	4.84827
344.344	2.49887
344.558	2.81251
344.771	2.11803
344.985	5.01685
345.199	5.8641
345.412	3.94514
345.626	3.89917
345.839	1.05404
346.053	2.022
346.266	2.00474
346.48	4.27051
346.693	3.91931
346.907	4.06444
347.12	2.15821
347.334	3.68129
347.547	4.02371
347.76	3.13516
347.974	4.9703
348.187	4.00177
348.401	3.09118
348.614	2.55169
348.827	2.95743
349.041	4.16256
349.254	1.04056
349.467	3.24579
349.681	1.97718
349.894	2.59744
350.107	5.03988
350.32	5.95647
350.534	1.38964
350.747	3.02318
350.96	2.12046
351.173	2.43362
351.386	2.62008
351.6	2.5665
351.813	2.51817
352.026	3.45392
352.239	1.66227
352.452	3.04954
352.665	4.67898
352.878	2.84614
353.092	6.26071
353.305	4.41523
353.518	3.49894
353.731	2.08092
353.944	4.61824
354.157	2.63009
354.37	2.35198
354.583	1.95613
354.796	1.16679
355.009	4.88455
355.222	3.26999
355.435	3.24913
355.647	4.56619
355.86	1.94732
356.073	3.21405
356.286	2.59149
356.499	4.34106
356.712	3.99429
356.925	3.60412
357.138	4.5891
357.35	1.86608
357.563	2.6631
357.776	3.21804
357.989	2.78182
358.201	3.83211
358.414	3.46057
358.627	4.44439
358.84	2.92465
359.052	1.56592
359.265	1.87021
359.478	4.20914
359.69	-0.14931
359.903	4.06653
360.116	4.19124
360.328	0.98733
360.541	4.04183
360.753	1.84532
360.966	2.32115
361.179	2.33696
361.391	2.229
361.604	1.74991
361.816	2.32416
362.029	2.0661
362.241	1.71123
362.454	2.19246
362.666	1.77954
362.879	3.01666
363.091	2.53434
363.304	1.85375
363.516	2.54021
363.728	1.30916
363.941	3.3434
364.153	2.31957
364.366	0.27549
364.578	1.47866
364.79	3.39418
365.003	2.78504
365.215	2.29683
365.427	3.61273
365.639	4.28972
365.852	3.13727
366.064	5.05804
366.276	2.28953
366.488	3.4913
366.701	2.46991
366.913	2.59802
367.125	2.77865
367.337	2.13821
367.549	2.25361
367.762	2.92436
367.974	2.91345
368.186	2.16363
368.398	4.01358
368.61	3.59474
368.822	3.86393
369.034	2.78857
369.246	3.70281
369.458	5.90949
369.67	1.93475
369.882	5.33383
370.094	0.53105
370.306	5.04234
370.518	2.44283
370.73	2.26092
370.942	2.09298
371.154	2.73452
371.366	2.47764
371.578	3.39341
371.79	1.97567
372.002	4.26412
372.214	5.06997
372.425	3.10316
372.637	4.6377
372.849	3.23478
373.061	0.34923
373.273	3.52067
373.484	3.64901
373.696	3.94245
373.908	0.24686
374.12	4.39203
374.331	3.41229
374.543	2.09566
374.755	1.77674
374.967	3.13806
375.178	3.89934
375.39	2.61461
375.602	3.06832
375.813	1.34293
376.025	1.37982
376.236	2.90785
376.448	3.06825
376.66	2.50212
376.871	2.37714
377.083	3.97101
377.294	4.32076
377.506	2.3638
377.717	4.54624
377.929	3.17521
378.14	2.08017
378.352	3.5511
378.563	3.50789
378.775	4.54457
378.986	2.06003
379.197	2.78647
379.409	2.29198
379.62	3.98474
379.832	3.13955
380.043	2.73335
380.254	3.3276
380.466	1.5247
380.677	6.10752
380.888	5.55134
381.1	6.06837
381.311	5.87397
381.522	2.907
381.733	6.44442
381.945	2.72432
382.156	3.18141
382.367	2.41514
382.578	6.4147
382.789	6.22932
383.001	2.3444
383.212	4.78944
383.423	4.8914
383.634	4.39428
383.845	3.52994
384.056	2.50441
384.267	3.06169
384.478	2.87858
384.69	1.76129
384.901	3.59813
385.112	3.38994
385.323	5.07903
385.534	3.4808
385.745	3.24694
385.956	3.57556
386.167	1.83324
386.378	3.73445
386.588	1.72245
386.799	2.2007
387.01	1.21502
387.221	3.96334
387.432	2.89848
387.643	5.26684
387.854	2.69084
388.065	2.646
388.275	2.80996
388.486	2.61979
388.697	2.9395
388.908	2.57911
389.119	4.49267
389.329	5.16886
389.54	3.20318
389.751	3.56395
389.962	4.59352
390.172	3.39038
390.383	2.53629
390.594	2.2186
390.804	2.40872
391.015	2.46844
391.226	3.13337
391.436	3.68953
391.647	3.35241
391.858	3.79448
392.068	1.19937
392.279	1.67039
392.489	3.02819
392.7	4.11301
392.91	1.80112
393.121	2.26178
393.331	3.41926
393.542	4.27869
393.752	3.28676
393.963	3.28548
394.173	3.12831
394.384	3.79472
394.594	2.9767
394.804	1.80223
395.015	3.15739
395.225	3.83995
395.436	1.80886
395.646	3.66392
395.856	2.20925
396.067	1.58219
396.277	4.22756
396.487	3.76232
396.697	3.0388
396.908	4.1134
397.118	4.11806
397.328	3.32584
397.538	4.19548
397.749	2.44534
397.959	4.32868
398.169	3.92634
398.379	1.78004
398.589	4.06498
398.8	3.24288
399.01	3.17711
399.22	2.78355
399.43	5.76837
399.64	2.93483
399.85	3.92447
400.06	3.09603
400.27	2.55877
400.48	3.18514
400.69	4.99256
400.9	2.56069
401.11	2.3957
401.32	4.29313
401.53	2.70876
401.74	5.03964
401.95	4.05733
402.16	2.28202
402.37	3.95883
402.58	2.61967
402.79	3.99012
403	4.28271
403.209	2.55854
403.419	4.15293
403.629	2.64856
403.839	4.12101
404.049	4.22478
404.258	2.34933
404.468	2.15167
404.678	3.91206
404.888	3.98563
405.097	2.30719
405.307	3.17089
405.517	3.77522
405.727	3.54584
405.936	2.69562
406.146	3.44458
406.356	4.62526
406.565	3.16177
406.775	2.59724
406.984	2.82327
407.194	5.22754
407.404	3.43718
407.613	3.67632
407.823	4.16481
408.032	4.74661
408.242	4.50857
408.451	2.72249
408.661	3.21685
408.87	5.4627
409.08	2.71457
409.289	3.79759
409.499	3.59735
409.708	3.56383
409.918	1.27833
410.127	3.42285
410.336	5.05081
410.546	4.03339
410.755	3.10855
410.964	2.89437
411.174	2.70103
411.383	4.03185
411.592	3.89324
411.802	2.31916
412.011	4.55923
412.22	3.44262
412.429	5.13687
412.639	4.87936
412.848	4.94813
413.057	5.26393
413.266	4.72296
413.475	3.46748
413.685	4.50935
413.894	4.5679
414.103	4.98583
414.312	4.29331
414.521	3.55577
414.73	3.7631
414.939	5.57838
415.148	4.04903
415.357	3.79906
415.566	3.10887
415.776	3.20813
415.985	2.84462
416.194	4.38848
416.403	5.18703
416.611	2.17601
416.82	2.77458
417.029	3.37523
417.238	2.60524
417.447	2.46066
417.656	2.76168
417.865	2.4922
418.074	2.78673
418.283	3.03868
418.492	3.85727
418.7	3.74786
418.909	4.51311
419.118	3.17652
419.327	3.4182
419.536	3.18759
419.744	2.5749
419.953	3.82066
420.162	3.7111
420.371	2.42171
420.579	2.15419
420.788	3.35165
420.997	3.27129
421.205	3.28743
421.414	2.8458
421.623	2.85815
421.831	2.49141
422.04	3.36841
422.249	2.44881
422.457	3.19834
422.666	2.56039
422.874	3.69582
423.083	3.7036
423.291	3.5196
423.5	3.11907
423.708	3.25337
423.917	3.68682
424.125	3.07938
424.334	2.70115
424.542	4.68806
424.751	3.79407
424.959	3.62259
425.167	4.06478
425.376	3.95083
425.584	3.27898
425.793	3.64333
426.001	2.67475
426.209	3.99877
426.418	2.78097
426.626	3.07689
426.834	2.81033
427.042	3.47389
427.251	2.93701
427.459	4.34874
427.667	3.79274
427.875	2.63692
428.084	3.12613
428.292	4.90045
428.5	4.06288
428.708	2.8399
428.916	2.82079
429.124	3.78886
429.333	3.32042
429.541	3.47815
429.749	3.71491
429.957	3.6607
430.165	5.70791
430.373	2.56116
430.581	3.87289
430.789	4.95362
430.997	3.18507
431.205	3.22461
431.413	3.70073
431.621	3.39176
431.829	4.29501
432.037	3.4028
432.245	4.19584
432.453	3.90962
432.661	3.27293
432.869	5.37293
433.076	2.60239
433.284	3.46787
433.492	4.00526
433.7	4.68455
433.908	3.09724
434.116	3.63363
434.323	3.72011
434.531	3.61929
434.739	4.01617
434.947	4.40176
435.154	4.21974
435.362	3.93713
435.57	3.49844
435.778	3.3927
435.985	4.03746
436.193	3.41049
436.401	4.76944
436.608	3.83569
436.816	3.35715
437.023	5.293
437.231	5.3689
437.439	3.94209
437.646	4.2701
437.854	4.23718
438.061	4.36902
438.269	3.60353
438.476	4.3989
438.684	3.93952
438.891	3.42403
439.099	3.16644
439.306	2.48594
439.514	2.87666
439.721	3.93842
439.929	3.09164
440.136	4.09245
440.343	3.86806
440.551	3.33416
440.758	5.05134
440.965	4.06978
441.173	3.77003
441.38	3.20545
441.587	3.97848
441.795	3.26016
442.002	3.99597
442.209	4.0251
442.416	4.40657
442.624	4.23783
442.831	4.22611
443.038	3.38096
443.245	3.06641
443.452	3.53142
443.66	4.76421
443.867	3.28421
444.074	3.52726
444.281	3.23684
444.488	3.65831
444.695	3.67252
444.902	3.34102
445.109	4.17777
445.316	3.48524
445.523	3.29732
445.73	2.91901
445.937	3.68543
446.144	4.01136
446.351	3.88217
446.558	2.98247
446.765	4.12743
446.972	4.38639
447.179	3.47256
447.386	4.65839
447.593	3.41723
447.8	4.66438
448.007	3.51775
448.214	3.8125
448.42	3.3015
448.627	4.83227
448.834	3.71902
449.041	3.64532
449.248	3.726
449.454	4.81908
449.661	5.59976
449.868	3.86178
450.075	3.51033
450.281	2.31453
450.488	3.13193
450.695	3.48801
450.901	3.44693
451.108	3.88284
451.315	5.00231
451.521	3.94547
451.728	4.90816
451.935	3.55488
452.141	4.02866
452.348	4.04438
452.554	3.883
452.761	3.62686
452.967	5.45145
453.174	4.21345
453.38	4.32686
453.587	3.00342
453.793	4.17817
454	4.87589
454.206	6.06172
454.413	5.22735
454.619	4.55392
454.825	3.54545
455.032	4.6523
455.238	5.06576
455.445	3.10938
455.651	4.41673
455.857	2.57427
456.064	3.93178
456.27	3.97715
456.476	4.01084
456.682	2.99492
456.889	4.59304
457.095	4.81834
457.301	6.41162
457.507	4.40086
457.714	4.30862
457.92	3.94007
458.126	3.39188
458.332	3.82069
458.538	3.50666
458.744	3.58882
458.951	3.56102
459.157	5.1213
459.363	3.95355
459.569	3.63125
459.775	4.46634
459.981	3.21953
460.187	3.75777
460.393	4.30061
460.599	4.8495
460.805	4.08883
461.011	4.02431
461.217	4.89669
461.423	5.09482
461.629	3.93368
461.835	4.86982
462.041	4.03946
462.247	5.76218
462.453	4.13557
462.658	4.32934
462.864	5.09167
463.07	4.75071
463.276	4.74834
463.482	4.81287
463.688	5.67811
463.893	4.03348
464.099	4.27973
464.305	6.13907
464.511	4.08097
464.716	4.48683
464.922	5.04737
465.128	3.84206
465.333	6.17233
465.539	4.9385
465.745	4.18547
465.95	4.77753
466.156	7.07836
466.362	5.62339
466.567	4.47299
466.773	4.13311
466.978	5.98199
467.184	3.66152
467.389	2.79537
467.595	5.1228
467.8	3.7246
468.006	5.86371
468.211	5.74089
468.417	3.6421
468.622	5.06392
468.828	5.23189
469.033	4.73388
469.239	7.39864
469.444	3.98466
469.649	5.60327
469.855	4.52596
470.06	4.81934
470.266	3.79919
470.471	5.38283
470.676	5.03448
470.881	3.24947
471.087	5.35466
471.292	6.26671
471.497	3.6193
471.703	4.45215
471.908	4.19638
472.113	5.02031
472.318	5.57886
472.523	3.85728
472.729	5.06575
472.934	5.22396
473.139	4.46726
473.344	5.39715
473.549	5.89527
473.754	4.17274
473.959	6.56978
474.164	4.02533
474.369	4.77865
474.575	5.70711
474.78	4.83737
474.985	4.32101
475.19	3.34869
475.395	4.16341
475.6	4.65644
475.804	6.06293
476.009	4.73519
476.214	4.89162
476.419	4.39128
476.624	3.13034
476.829	4.00981
477.034	5.17577
477.239	3.85713
477.444	4.83222
477.648	5.08344
477.853	5.21541
478.058	4.22856
478.263	3.99123
478.468	3.50276
478.672	3.66073
478.877	5.50011
479.082	6.26926
479.287	4.91534
479.491	4.61331
479.696	3.61264
479.901	5.5001
480.105	5.27148
480.31	4.13068
480.515	4.47301
480.719	6.54134
480.924	3.93355
481.128	3.48452
481.333	4.55766
481.538	4.5983
481.742	4.02821
481.947	4.57784
482.151	4.50743
482.356	4.05762
482.56	4.6828
482.765	4.98674
482.969	6.19815
483.174	6.99045
483.378	8.2329
483.582	8.0356
483.787	8.86668
483.991	8.78543
484.196	8.87002
484.4	8.68368
484.604	9.02015
484.809	7.73399
485.013	7.5896
485.217	6.68453
485.422	5.98858
485.626	5.47672
485.83	5.19041
486.034	5.08966
486.239	5.35353
486.443	5.32017
486.647	5.22726
486.851	6.05504
487.055	6.60034
487.26	6.01902
487.464	6.55029
487.668	6.04861
487.872	5.92769
488.076	6.5936
488.28	6.07067
488.484	5.59061
488.688	5.59505
488.892	5.59529
489.096	5.26216
489.3	4.6499
489.504	4.49475
489.708	4.98071
489.912	5.05449
490.116	4.98634
490.32	4.09766
490.524	4.71139
490.728	4.80857
490.932	4.87356
491.136	4.8816
491.34	5.82113
491.544	5.96782
491.748	5.60925
491.951	5.64477
492.155	5.33693
492.359	5.40986
492.563	4.49971
492.767	4.31757
492.97	4.29452
493.174	4.11745
493.378	4.43512
493.582	4.02859
493.785	4.80907
493.989	4.96059
494.193	4.96275
494.396	4.66633
494.6	5.62777
494.804	4.86131
495.007	4.51585
495.211	4.29782
495.414	4.84869
495.618	4.94573
495.822	5.88839
496.025	4.82238
496.229	5.55704
496.432	4.15318
496.636	4.7114
496.839	4.56787
497.043	5.90035
497.246	4.90429
497.45	4.43078
497.653	4.50088
497.856	4.96517
498.06	3.79879
498.263	4.47082
498.467	4.29383
498.67	5.62045
498.873	5.26452
499.077	4.49717
499.28	4.54343
499.483	5.24546
499.686	5.51926
499.89	5.22251
500.093	5.54793
500.296	4.34266
500.499	6.19322
500.703	5.06649
500.906	5.02399
501.109	6.75485
501.312	5.15771
501.515	4.88026
501.719	5.38526
501.922	6.38446
502.125	5.47956
502.328	5.06641
502.531	4.18321
502.734	5.26274
502.937	3.44043
503.14	5.10268
503.343	4.09747
503.546	4.69149
503.749	4.471
503.952	5.61684
504.155	4.15046
504.358	5.52133
504.561	4.96465
504.764	4.012
504.967	5.02037
505.17	5.05911
505.373	6.47782
505.576	5.19178
505.778	5.55596
505.981	4.64955
506.184	6.26197
506.387	3.80374
506.59	6.64863
506.793	6.26779
506.995	5.58234
507.198	3.51203
507.401	5.25457
507.604	5.47124
507.806	4.19632
508.009	4.36371
508.212	5.42304
508.414	4.50202
508.617	4.44032
508.82	4.84853
509.022	5.97248
509.225	5.16591
509.427	3.56472
509.63	6.02988
509.833	4.90021
510.035	4.82155
510.238	3.71608
510.44	5.95536
510.643	3.18334
510.845	7.00932
511.048	5.38471
511.25	4.64013
511.453	5.00322
511.655	5.42224
511.858	4.63468
512.06	5.78908
512.262	5.02394
512.465	5.74096
512.667	4.51498
512.869	4.14433
513.072	5.40792
513.274	5.9199
513.476	5.58799
513.679	5.83475
513.881	4.21504
514.083	6.6237
514.286	4.49762
514.488	4.77255
514.69	4.30467
514.892	4.12728
515.094	5.68973
515.297	4.82216
515.499	5.33131
515.701	4.55332
515.903	6.76194
516.105	6.67455
516.307	5.84794
516.509	3.59235
516.711	4.12459
516.913	5.23318
517.116	5.05475
517.318	4.70802
517.52	6.08022
517.722	5.55713
517.924	3.95618
518.126	5.32873
518.328	4.30991
518.529	5.15838
518.731	6.18464
518.933	4.43663
519.135	4.81606
519.337	5.78556
519.539	5.25174
519.741	3.61157
519.943	4.87628
520.145	4.81522
520.346	5.49898
520.548	4.82071
520.75	5.47282
520.952	4.86429
521.153	5.30349
521.355	5.63802
521.557	4.28903
521.759	5.5414
521.96	5.38436
522.162	4.49295
522.364	6.26843
522.565	4.54451
522.767	5.97407
522.969	6.50493
523.17	5.80105
523.372	5.75473
523.573	4.72349
523.775	5.13322
523.977	4.36808
524.178	6.63859
524.38	4.64083
524.581	5.85872
524.783	4.89531
524.984	5.55217
525.186	5.00155
525.387	5.54154
525.589	5.00636
525.79	4.69111
525.991	4.33038
526.193	5.23049
526.394	3.8704
526.596	5.09193
526.797	5.004
526.998	4.63293
527.2	3.97977
527.401	5.35262
527.602	5.25362
527.803	6.74805
528.005	6.66136
528.206	7.25636
528.407	7.72547
528.608	7.30384
528.81	7.44092
529.011	6.83792
529.212	7.79321
529.413	6.96256
529.614	6.50232
529.815	6.38606
530.017	5.90627
530.218	5.22868
530.419	4.86072
530.62	5.26971
530.821	5.40033
531.022	4.36787
531.223	5.70188
531.424	5.68806
531.625	5.48152
531.826	5.39462
532.027	5.28973
532.228	6.0525
532.429	5.28582
532.63	4.92813
532.831	5.25335
533.032	5.22045
533.233	5.7807
533.433	5.47316
533.634	5.61968
533.835	5.03567
534.036	4.76095
534.237	5.06957
534.438	4.86938
534.638	4.39649
534.839	4.88782
535.04	5.63847
535.241	4.91501
535.441	6.71415
535.642	5.61234
535.843	4.49292
536.043	4.52166
536.244	4.68524
536.445	4.71877
536.645	5.74974
536.846	5.20732
537.047	6.06598
537.247	4.63464
537.448	5.05574
537.648	5.2584
537.849	5.29063
538.049	5.20598
538.25	6.10423
538.451	5.82527
538.651	4.97588
538.851	5.83334
539.052	6.61381
539.252	6.31077
539.453	5.49078
539.653	5.64812
539.854	5.56616
540.054	5.38476
540.254	6.11834
540.455	5.85978
540.655	4.87666
540.855	5.55095
541.056	6.1297
541.256	5.64282
541.456	6.64022
541.657	5.68438
541.857	6.67674
542.057	5.14182
542.257	5.02248
542.458	5.67733
542.658	5.87186
542.858	4.72032
543.058	6.33258
543.258	5.84269
543.458	4.68948
543.659	4.46731
543.859	6.12334
544.059	6.03148
544.259	5.45616
544.459	6.17358
544.659	5.0976
544.859	5.97797
545.059	5.15445
545.259	6.1544
545.459	5.76409
545.659	6.33562
545.859	5.64776
546.059	5.88976
546.259	4.83937
546.459	4.32497
546.659	4.71373
546.859	6.09755
547.059	6.03506
547.258	6.04455
547.458	5.93995
547.658	4.66197
547.858	4.81408
548.058	5.95854
548.258	5.49697
548.457	4.92213
548.657	8.43705
548.857	5.65115
549.057	6.84227
549.256	6.67911
549.456	5.9926
549.656	4.16227
549.855	8.09769
550.055	5.91756
550.255	8.06477
550.454	6.70609
550.654	7.40207
550.853	7.80826
551.053	7.39556
551.253	6.75994
551.452	6.7266
551.652	5.04838
551.851	4.44824
552.051	5.85603
552.25	5.51492
552.45	5.32008
552.649	5.78539
552.849	5.02205
553.048	6.02353
553.248	6.60959
553.447	5.19258
553.646	7.08198
553.846	7.93057
554.045	7.34639
554.244	4.95257
554.444	8.19758
554.643	5.53673
554.842	7.97388
555.042	8.82283
555.241	5.80507
555.44	5.36071
555.64	6.80566
555.839	8.6983
556.038	7.13053
556.237	5.93133
556.436	6.40034
556.636	7.1863
556.835	5.5373
557.034	8.34096
557.233	6.58054
557.432	5.26133
557.631	7.87688
557.83	6.36877
558.029	6.00242
558.228	6.24284
558.427	5.45878
558.626	7.1289
558.825	5.65939
559.024	7.05232
559.223	8.67651
559.422	6.80002
559.621	7.22666
559.82	3.93924
560.019	6.7752
560.218	6.0558
560.417	3.43689
560.616	6.20446
560.815	10.5438
561.014	4.76356
561.212	7.91227
561.411	6.86367
561.61	4.63859
561.809	6.31199
562.008	8.45737
562.206	6.40243
562.405	7.29505
562.604	6.30577
562.803	6.77938
563.001	6.38408
563.2	4.99578
563.399	7.2067
563.597	5.16517
563.796	6.82466
563.995	5.01988
564.193	7.42269
564.392	5.83541
564.59	9.18271
564.789	4.28732
564.988	6.05268
565.186	6.4527
565.385	6.14444
565.583	5.74709
565.782	6.03934
565.98	5.79308
566.179	6.13593
566.377	4.71624
566.575	5.2083
566.774	7.39969
566.972	7.07182
567.171	8.52649
567.369	7.64093
567.567	6.36818
567.766	6.74761
567.964	4.02908
568.162	7.22265
568.361	7.67679
568.559	6.47086
568.757	7.05483
568.956	6.71742
569.154	6.38777
569.352	7.55044
569.55	6.40433
569.748	6.48342
569.947	5.46363
570.145	5.45999
570.343	4.98887
570.541	7.81346
570.739	4.61634
570.937	6.51212
571.135	6.7789
571.333	8.17473
571.532	8.00553
571.73	6.50952
571.928	7.44393
572.126	6.69978
572.324	5.62346
572.522	7.55326
572.72	9.15774
572.918	6.13134
573.116	6.46364
573.313	6.22697
573.511	6.05241
573.709	5.83256
573.907	7.07975
574.105	5.85818
574.303	4.41718
574.501	4.58612
574.699	6.71241
574.896	6.59511
575.094	7.06151
575.292	4.69958
575.49	7.38917
575.688	5.94535
575.885	8.11041
576.083	8.5967
576.281	6.98407
576.478	5.8234
576.676	7.21421
576.874	5.1729
577.071	6.34818
577.269	9.6977
577.467	6.82351
577.664	6.77991
577.862	7.77884
578.059	5.7846
578.257	8.03755
578.455	6.54351
578.652	6.78532
578.85	4.53044
579.047	7.06089
579.245	6.96592
579.442	7.08283
579.64	6.96722
579.837	4.62318
580.034	10.13471
580.232	6.67414
580.429	6.00939
580.627	7.97012
580.824	9.21537
581.021	7.83194
581.219	6.52235
581.416	6.00542
581.613	9.03945
581.811	8.98691
582.008	6.18066
582.205	8.65023
582.402	7.49247
582.6	10.30584
582.797	7.66005
582.994	8.26329
583.191	8.38987
583.388	7.32755
583.586	8.59127
583.783	9.06394
583.98	6.21912
584.177	7.81217
584.374	3.34663
584.571	7.20237
584.768	7.06179
584.965	6.89938
585.162	8.59857
585.359	10.03129
585.556	7.3244
585.753	8.01516
585.95	5.70521
586.147	6.40957
586.344	8.19556
586.541	6.83845
586.738	5.80614
586.935	7.46164
587.132	6.38413
587.329	9.25736
587.526	7.49197
587.722	14.76506
587.919	5.04265
588.116	8.01916
588.313	9.79723
588.51	10.76713
588.706	7.0586
588.903	8.29298
589.1	8.89915
589.297	11.88531
589.493	7.35955
589.69	8.11732
589.887	6.4778
590.083	5.56597
590.28	6.06581
590.477	9.0571
590.673	8.22426
590.87	9.44289
591.067	6.97666
591.263	8.44766
591.46	8.05664
591.656	7.39414
591.853	9.67801
592.049	6.04438
592.246	6.81977
592.442	9.41567
592.639	8.59782
592.835	5.58638
593.032	8.37545
593.228	5.59939
593.425	5.33681
593.621	5.26636
593.817	7.65284
594.014	6.26255
594.21	7.46349
594.406	8.95619
594.603	7.9602
594.799	6.57918
594.995	3.91973
595.192	8.8769
595.388	6.50213
595.584	6.54019
595.78	4.82699
595.977	10.04516
596.173	9.54772
596.369	6.80046
596.565	5.54357
596.761	4.77614
596.957	8.62753
597.154	5.58903
597.35	6.06932
597.546	5.60903
597.742	7.36301
597.938	7.25891
598.134	5.62603
598.33	6.98966
598.526	9.58843
598.722	8.32801
598.918	10.11018
599.114	8.52731
599.31	6.44132
599.506	7.74793
599.702	6.40918
599.898	8.45304
600.094	9.69543
600.29	9.33495
600.485	9.11952
600.681	6.90661
600.877	11.06109
601.073	8.24884
601.269	10.98851
601.465	9.99763
601.66	6.53146
601.856	5.01946
602.052	10.44766
602.248	6.85458
602.443	4.42142
602.639	5.60141
602.835	5.90027
603.03	5.87341
603.226	8.40845
603.422	5.60275
603.617	6.44444
603.813	6.21428
604.009	5.83143
604.204	8.35544
604.4	4.43188
604.595	8.09913
604.791	5.05971
604.986	7.02415
605.182	5.52545
605.377	5.90051
605.573	6.12714
605.768	7.0323
605.964	7.90794
606.159	8.07727
606.355	9.39853
606.55	6.8443
606.746	9.10696
606.941	7.47872
607.136	11.0029
607.332	12.74544
607.527	5.68081
607.722	8.34065
607.918	7.64782
608.113	6.38098
608.308	8.65215
608.503	8.38665
608.699	8.01611
608.894	7.98602
609.089	5.88583
609.284	7.4624
609.479	6.12859
609.675	7.94705
609.87	6.45739
610.065	7.83798
610.26	8.81019
610.455	8.59883
610.65	6.98259
610.845	7.74879
611.04	9.00146
611.235	7.26653
611.43	7.12303
611.625	5.82105
611.82	10.42723
612.015	6.56855
612.21	10.69098
612.405	5.45555
612.6	11.61701
612.795	10.33345
612.99	9.73084
613.185	6.19718
613.38	6.91378
613.575	8.84906
613.77	13.46736
613.965	5.91967
614.159	6.92045
614.354	11.01331
614.549	10.48332
614.744	9.71715
614.938	6.61522
615.133	5.97084
615.328	11.08319
615.523	11.02094
615.717	14.20229
615.912	7.81059
616.107	8.85285
616.301	7.92638
616.496	7.54539
616.691	12.21219
616.885	10.03588
617.08	13.64156
617.274	11.28134
617.469	13.39206
617.664	10.30842
617.858	7.86566
618.053	9.32695
618.247	8.12463
618.442	4.71729
618.636	11.32235
618.831	7.52168
619.025	7.96969
619.219	13.84396
619.414	2.42163
619.608	8.98558
619.803	7.31157
619.997	13.22113
620.191	11.75569
620.386	9.75698
620.58	9.30916
620.774	5.45515
620.969	6.23272
621.163	9.32533
621.357	6.18273
621.551	8.34471
621.746	9.34174
621.94	8.74151
622.134	16.83733
622.328	13.82363
622.522	5.73077
622.716	11.56463
622.911	11.19631
623.105	10.90028
623.299	9.91347
623.493	16.12717
623.687	7.62616
623.881	8.23618
624.075	10.73043
624.269	11.39558
624.463	5.37761
624.657	5.95318
624.851	10.24112
625.045	11.35525
625.239	11.37268
625.433	7.333
625.627	12.04348
625.821	7.60337
626.015	6.93712
626.209	8.79736
626.403	5.66769
626.596	9.26584
626.79	9.99832
626.984	5.96267
627.178	9.36921
627.372	9.53934
627.565	10.16775
627.759	5.11154
627.953	6.0426
628.147	9.35356
628.34	10.29621
628.534	13.16758
628.728	8.41467
628.921	11.06591
629.115	10.45869
629.309	11.20999
629.502	11.12639
629.696	9.67212
629.89	9.13621
630.083	9.79937
630.277	10.64889
630.47	13.46673
630.664	8.95677
630.857	6.49439
631.051	11.14905
631.244	12.41557
631.438	11.82735
631.631	8.20181
631.825	12.30102
632.018	11.31845
632.212	13.87251
632.405	12.42174
632.598	7.99552
632.792	10.27219
632.985	4.72795
633.178	8.79605
633.372	9.88901
633.565	9.74038
633.758	12.80779
633.952	7.60033
634.145	7.41264
634.338	9.57998
634.531	8.41728
634.724	8.12186
634.918	9.99435
635.111	8.94452
635.304	8.58103
635.497	14.82946
635.69	10.45123
635.883	12.46589
636.077	7.13929
636.27	11.08704
636.463	10.12712
636.656	11.43732
636.849	8.95978
637.042	10.60158
637.235	14.22187
637.428	12.47194
637.621	11.13061
637.814	13.93661
638.007	14.38674
638.2	14.57018
638.393	16.05018
638.586	7.70412
638.778	9.26752
638.971	10.46671
639.164	15.50959
639.357	12.32893
639.55	14.44787
639.743	12.80899
639.935	12.84136
640.128	16.2621
640.321	13.04569
640.514	11.68655
640.707	18.20619
640.899	13.25889
641.092	7.04992
641.285	31.395
641.477	5.23839
641.67	17.59047
641.863	14.9958
642.055	12.61341
642.248	11.88762
642.441	10.52291
642.633	12.79287
642.826	16.53287
643.018	15.48147
643.211	16.99267
643.403	16.09296
643.596	18.50216
643.788	17.12206
643.981	11.18348
644.173	14.50632
644.366	11.50066
644.558	6.93975
644.751	14.54431
644.943	8.05995
645.135	17.58785
645.328	17.53292
645.52	14.86806
645.712	15.07739
645.905	21.84814
646.097	9.17385
646.289	13.55334
646.482	18.35137
646.674	10.81994
646.866	15.40488
647.058	14.2263
647.251	9.13584
647.443	10.64253
647.635	12.06809
647.827	9.18304
648.019	9.46942
648.211	12.59799
648.404	12.98539
648.596	17.36677
648.788	13.64136
648.98	13.20667
649.172	13.96171
649.364	13.58335
649.556	7.21543
649.748	20.05061
649.94	9.43143
650.132	14.13632
650.324	10.05327
650.516	10.68079
650.708	16.2685
650.9	8.73732
651.092	7.69436
651.284	7.74688
651.476	9.04089
651.667	14.59593
651.859	16.12983
652.051	12.33726
652.243	12.54762
652.435	10.67538
652.627	13.64609
652.818	14.48321
653.01	7.60394
653.202	10.35548
653.394	12.0504
653.585	14.45354
653.777	27.5859
653.969	17.51116
654.16	16.95019
654.352	9.96748
654.544	12.97296
654.735	16.63778
654.927	13.34263
655.118	18.70648
655.31	16.12201
655.502	16.17653
655.693	11.72324
655.885	14.94389
656.076	18.33996
656.268	13.4257
656.459	17.6782
656.651	17.934
656.842	11.18922
657.034	10.84369
657.225	15.6066
657.416	17.74648
657.608	17.6434
657.799	12.38897
657.99	16.36965
658.182	9.96266
658.373	10.26298
658.564	14.81968
658.756	12.31589
658.947	11.59588
659.138	8.80911
659.33	9.97535
659.521	9.19607
659.712	11.18781
659.903	11.10903
660.094	9.82028
660.286	7.05844
660.477	18.40638
660.668	14.12326
660.859	12.71837
661.05	8.04599
661.241	14.79787
661.432	14.8871
661.623	11.9968
661.814	12.302
662.006	8.04626
662.197	15.5124
662.388	17.39061
662.579	14.83983
662.77	19.00503
662.96	23.5081
663.151	17.47674
663.342	8.28434
663.533	15.92226
663.724	13.74323
663.915	20.03544
664.106	13.87611
664.297	21.29707
664.488	17.20704
664.678	13.14175
664.869	17.32003
665.06	17.6489
665.251	15.78655
665.442	17.04349
665.632	11.71496
665.823	21.90348
666.014	4.60038
666.204	17.70419
666.395	20.36609
666.586	25.97491
666.776	18.83291
666.967	21.9013
667.158	15.75978
667.348	21.27215
667.539	10.83523
667.729	18.1156
667.92	12.45578
668.111	18.84446
668.301	17.94889
668.492	13.78616
668.682	14.32577
668.873	14.47017
669.063	10.28344
669.253	15.52004
669.444	18.52256
669.634	14.23336
669.825	22.37524
670.015	18.68341
670.206	12.8192
670.396	23.72435
670.586	14.6398
670.777	17.65814
670.967	7.61627
671.157	15.43224
671.347	13.31887
671.538	21.32619
671.728	17.25198
671.918	23.18829
672.108	20.44296
672.299	15.94129
672.489	17.34535
672.679	13.60734
672.869	18.82166
673.059	22.67335
673.249	18.76316
673.44	12.81087
673.63	15.26893
673.82	20.21114
674.01	12.70034
674.2	18.43755
674.39	28.87618
674.58	19.11675
674.77	17.26094
674.96	16.92622
675.15	34.39491
675.34	21.38968
675.53	16.44397
675.72	14.81547
675.91	10.72135
676.099	24.17274
676.289	26.01758
676.479	21.39707
676.669	15.23785
676.859	19.85225
677.049	12.5197
677.238	16.84592
677.428	24.67434
677.618	17.59205
677.808	20.75532
677.997	18.78878
678.187	11.88365
678.377	16.50805
678.567	14.4704
678.756	14.59577
678.946	14.92582
679.136	10.14921
679.325	12.1563
679.515	11.85229
679.704	9.83442
679.894	17.04682
680.084	15.50931
680.273	20.02383
680.463	10.98068
680.652	11.29744
680.842	14.62172
681.031	18.36952
681.221	11.71235
681.41	17.47457
681.6	14.37446
681.789	18.58748
681.978	21.68945
682.168	16.71059
682.357	17.50985
682.547	19.03912
682.736	16.92312
682.925	21.84463
683.115	20.88811
683.304	20.68994
683.493	19.45098
683.682	19.28173
683.872	19.12886
684.061	23.90883
684.25	20.84751
684.439	26.97894
684.629	20.01479
684.818	33.88911
685.007	17.35295
685.196	16.50163
685.385	24.99341
685.574	20.23416
685.763	20.22116
685.952	19.14322
686.142	14.04693
686.331	25.73998
686.52	10.60081
686.709	25.95685
686.898	25.64581
687.087	21.62015
687.276	27.12241
687.465	23.19323
687.654	17.33139
687.842	26.98238
688.031	12.21737
688.22	24.70956
688.409	19.81045
688.598	19.89075
688.787	31.10069
688.976	19.40528
689.165	27.75434
689.353	17.12693
689.542	21.70545
689.731	23.08523
689.92	29.18859
690.108	25.3367
690.297	17.57002
690.486	20.37931
690.675	23.78335
690.863	28.58629
691.052	28.8101
691.241	22.61583
691.429	21.806
691.618	28.57816
691.806	14.48049
691.995	19.51412
692.184	20.90439
692.372	17.80058
692.561	21.1889
692.749	21.24172
692.938	33.8337
693.126	24.13419
693.315	19.56795
693.503	24.28561
693.692	24.44358
693.88	26.76045
694.068	33.90049
694.257	20.89195
694.445	23.39867
694.634	11.03392
694.822	28.07255
695.01	28.41847
695.199	29.25693
695.387	31.47097
695.575	28.57922
695.763	22.25349
695.952	19.55691
696.14	13.36962
696.328	18.43788
696.516	22.47083
696.705	23.1008
696.893	23.19891
697.081	12.07611
697.269	24.14435
697.457	15.43792
697.645	13.8646
697.833	24.00538
698.021	14.99577
698.21	15.6184
698.398	17.19089
698.586	12.04045
698.774	11.68463
698.962	15.90616
699.15	12.45454
699.338	10.34746
699.526	19.1552
699.714	14.33
699.901	14.73589
700.089	22.32104
700.277	14.51576
700.465	17.52624
700.653	24.00129
700.841	22.48974
701.029	15.58099
701.217	27.01846
701.404	21.68057
701.592	29.28319
701.78	33.04661
701.968	19.69219
702.155	20.30574
702.343	14.57323
702.531	29.69187
702.718	25.26257
702.906	21.61194
703.094	19.38645
703.281	31.18595
703.469	21.67984
703.657	29.99665
703.844	44.90505
704.032	34.15596
704.219	20.04236
704.407	27.05739
704.595	32.94411
704.782	25.06027
704.97	22.41721
705.157	21.14987
705.345	34.28894
705.532	41.2647
705.719	27.98873
705.907	34.17595
706.094	25.00922
706.282	36.07765
706.469	23.12689
706.656	26.63645
706.844	23.97136
707.031	31.49932
707.218	26.79172
707.406	35.84118
707.593	29.86417
707.78	28.98455
707.968	24.10477
708.155	20.01067
708.342	29.46282
708.529	28.73262
708.716	27.06829
708.904	37.86332
709.091	28.95495
709.278	17.19895
709.465	37.14224
709.652	38.28974
709.839	34.93158
710.026	28.34518
710.213	15.30421
710.4	28.49089
710.587	31.90581
710.774	34.58522
710.961	33.93278
711.148	26.47906
711.335	34.04205
711.522	25.80864
711.709	29.17027
711.896	41.20951
712.083	33.91783
712.27	20.75995
712.457	28.22487
712.644	17.10014
712.831	42.29918
713.017	28.10386
713.204	32.59317
713.391	23.70705
713.578	36.82355
713.765	36.96879
713.951	31.46907
714.138	50.89094
714.325	32.64259
714.512	28.17902
714.698	23.81473
714.885	40.25298
715.072	30.85005
715.258	29.40283
715.445	23.74668
715.631	38.22473
715.818	11.71258
716.005	23.59502
716.191	32.37898
716.378	26.68175
716.564	35.65439
716.751	23.07058
716.937	25.03173
717.124	37.86026
717.31	23.61708
717.497	41.03097
717.683	24.61825
717.869	48.30981
718.056	26.87988
718.242	33.74044
718.429	31.3741
718.615	23.06544
718.801	31.43085
718.988	39.23216
719.174	33.9353
719.36	29.03989
719.547	41.93599
719.733	34.84126
719.919	35.26861
720.105	38.83831
720.291	31.81816
720.478	35.30745
720.664	30.97332
720.85	28.34496
721.036	57.08237
721.222	45.61248
721.408	33.0565
721.595	50.23829
721.781	49.40162
721.967	42.88527
722.153	49.48089
722.339	40.5752
722.525	37.80609
722.711	25.23981
722.897	23.73326
723.083	30.58694
723.269	44.14177
723.455	57.12699
723.641	61.18509
723.827	37.25502
724.012	39.34483
724.198	31.20634
724.384	46.02384
724.57	38.85548
724.756	23.65547
724.942	19.07475
725.127	43.62995
725.313	48.89372
725.499	49.26354
725.685	52.81681
725.87	39.01318
726.056	28.05907
726.242	47.89453
726.428	22.13056
726.613	42.86898
726.799	33.36182
726.985	25.91958
727.17	22.17494
727.356	49.35259
727.541	28.93692
727.727	34.64197
727.913	42.36549
728.098	30.7631
728.284	42.41619
728.469	23.5433
728.655	28.16165
728.84	42.73744
729.026	43.65265
729.211	45.50262
729.397	37.93248
729.582	41.29575
729.767	34.545
729.953	39.05267
730.138	44.67114
730.323	15.6784
730.509	25.86882
730.694	50.77245
730.879	39.13768
731.065	36.53938
731.25	57.59208
731.435	41.81311
731.621	22.57378
731.806	31.3503
731.991	39.29022
732.176	22.05264
732.361	48.22224
732.547	38.27787
732.732	20.87142
732.917	59.28507
733.102	24.88748
733.287	28.62519
733.472	34.70233
733.657	34.65446
733.842	22.56644
734.027	32.70692
734.212	35.21918
734.397	28.96623
734.582	37.07248
734.767	44.56333
734.952	50.9381
735.137	14.74918
735.322	52.17858
735.507	41.34914
735.692	40.90102
735.877	61.15107
736.062	54.92382
736.247	41.00566
736.431	38.54452
736.616	51.55347
736.801	42.33666
736.986	38.8816
737.171	30.78767
737.355	28.64647
737.54	52.61055
737.725	39.35762
737.909	71.28026
738.094	32.1968
738.279	49.14511
738.463	36.11691
738.648	46.73168
738.833	42.62366
739.017	59.0696
739.202	35.58573
739.386	38.68361
739.571	23.55428
739.756	46.76559
739.94	39.24903
740.125	49.10698
740.309	31.55605
740.494	48.5594
740.678	41.28818
740.863	45.67161
741.047	43.00789
741.231	54.54303
741.416	30.16217
741.6	60.17809
741.785	33.76763
741.969	51.39665
742.153	55.31175
742.338	18.65325
742.522	41.17799
742.706	48.3733
742.89	28.8023
743.075	43.15803
743.259	59.72474
743.443	53.40585
743.627	55.61927
743.812	70.39823
743.996	23.96799
744.18	40.92658
744.364	37.60307
744.548	76.51206
744.732	42.68944
744.916	53.81802
745.1	47.03654
745.285	39.76306
745.469	51.44521
745.653	66.95043
745.837	27.66648
746.021	77.02032
746.205	60.19261
746.389	45.04784
746.573	41.83143
746.757	63.43339
746.94	39.60827
747.124	56.45838
747.308	29.14414
747.492	59.7433
747.676	37.27666
747.86	74.6583
748.044	39.6615
748.227	22.87975
748.411	92.2986
748.595	47.48277
748.779	34.26106
748.963	49.32759
749.146	46.04023
749.33	35.02512
749.514	31.52497
749.697	59.195
749.881	37.27125
750.065	33.87855
750.248	45.64457
750.432	76.26811
750.616	43.96826
750.799	28.87868
750.983	71.90321
751.166	86.13162
751.35	28.44129
751.533	53.38189
751.717	61.18333
751.9	65.94687
752.084	38.52508
752.267	33.31146
752.451	35.42429
752.634	46.02299
752.818	55.43003
753.001	56.39179
753.184	58.82822
753.368	50.66924
753.551	8.10674
753.734	34.53771
753.918	73.90159
754.101	36.21035
754.284	55.94098
754.467	39.69371
754.651	35.46896
754.834	36.53866
755.017	61.60489
755.2	59.69501
755.384	31.21381
755.567	57.33771
755.75	63.28303
755.933	41.71335
756.116	47.4975
756.299	40.54392
756.482	34.2583
756.665	55.29947
756.848	48.37482
757.032	53.87669
757.215	28.94039
757.398	37.01939
757.581	34.84787
757.764	84.16933
757.947	44.39872
758.129	64.2069
758.312	11.65467
758.495	45.57647
758.678	44.62987
758.861	43.16094
759.044	73.87476
759.227	35.67714
759.41	36.3979
759.592	53.2063
759.775	45.45092
759.958	59.17619
760.141	28.46473
760.324	79.87222
760.506	68.61001
760.689	60.74181
760.872	82.70299
761.054	55.57682
761.237	44.0429
761.42	54.05312
761.602	60.42822
761.785	49.9125
761.968	61.44236
762.15	74.83778
762.333	43.82407
762.515	52.78945
762.698	38.50261
762.88	55.10139
763.063	49.37971
763.245	53.5632
763.428	32.99564
763.61	35.46296
763.793	25.73269
763.975	44.03074
764.158	35.01708
764.34	34.2293
764.522	29.22228
764.705	36.40357
764.887	56.27607
765.069	22.30478
765.252	51.44441
765.434	53.19551
765.616	44.26208
765.799	36.02573
765.981	58.77474
766.163	33.84856
766.345	60.22975
766.528	37.64009
766.71	15.16101
766.892	51.7156
767.074	66.11785
767.256	45.52672
767.438	76.31897
767.62	51.9013
767.802	83.46213
767.985	58.47296
768.167	83.72087
768.349	39.43585
768.531	60.07558
768.713	56.05423
768.895	64.87408
769.077	56.20606
769.259	91.29405
769.441	139.72072
769.623	69.35564
769.804	83.21645
769.986	80.42609
770.168	95.42002
770.35	119.01374
770.532	82.04256
770.714	91.32926
770.896	98.58449
771.077	39.49177
771.259	94.92207
771.441	78.62382
771.623	106.04752
771.804	131.418
771.986	35.63554
772.168	61.82918
772.35	102.1983
772.531	136.90488
772.713	76.54425
772.894	109.24168
773.076	70.99196
773.258	63.27964
773.439	105.11476
773.621	119.44049
773.802	51.79418
773.984	61.6316
774.166	84.70208
774.347	113.27782
774.529	104.90202
774.71	34.58318
774.891	69.42804
775.073	66.06176
775.254	111.94111
775.436	63.00837
775.617	130.57509
775.799	63.78665
775.98	117.86922
776.161	123.7067
776.343	124.06531
776.524	76.3652
776.705	67.72629
776.886	36.82276
777.068	90.04806
777.249	156.76256
777.43	137.62972
777.611	50.86134
777.793	72.03668
777.974	122.52776
778.155	63.49346
778.336	62.37509
778.517	142.01382
778.698	57.93241
778.879	33.66835
779.061	18.03942
779.242	88.63489
779.423	92.47457
779.604	63.77283
779.785	72.42452
779.966	82.55105
780.147	103.27008
780.328	110.41933
780.509	157.55957
780.69	99.341
780.871	58.89972
781.051	44.0778
781.232	82.06671
781.413	79.79384
781.594	69.69129
781.775	68.82013
781.956	61.29066
782.137	35.60598
782.317	60.31405
782.498	87.28628
782.679	85.43546
782.86	83.67403
783.04	61.86514
783.221	88.75045
783.402	138.76014
783.583	81.14307
783.763	102.50489
783.944	66.74053
784.124	47.67577
784.305	133.40556
784.486	93.27349
784.666	73.00666
784.847	38.68134
785.027	159.53993
785.208	59.75587
785.388	59.31713
785.569	62.6623
785.749	73.75071
785.93	64.4912
786.11	40.35988
786.291	93.61317
786.471	84.58977
786.652	102.09093
786.832	77.71444
787.012	85.13231
787.193	50.25253
787.373	81.38883
787.553	69.54562
787.734	84.64163
787.914	68.13338
788.094	94.79736
788.275	89.07085
788.455	70.28762
788.635	45.12411
788.815	84.96816
788.995	51.37701
789.176	41.10142
789.356	55.26705
789.536	68.9452
789.716	92.20997
789.896	59.10157
790.076	65.44863
790.256	79.83735
790.436	24.69809
790.616	57.01303
790.796	84.309
790.976	68.44535
791.156	58.22248
791.336	98.81986
791.516	89.52044
791.696	68.82729
791.876	42.45918
792.056	80.76263
792.236	102.91889
792.416	101.82838
792.596	84.49593
792.776	88.04605
792.956	94.47985
793.135	124.10159
793.315	53.48476
793.495	113.30098
793.675	91.0867
793.854	104.67998
794.034	100.81521
794.214	49.75744
794.394	104.24596
794.573	113.37164
794.753	83.51915
794.933	56.86767
795.112	85.30033
795.292	103.61717
795.472	132.90639
795.651	44.58977
795.831	77.87667
796.01	68.76061
796.19	71.61787
796.369	74.73843
796.549	92.34931
796.728	73.08322
796.908	41.17141
797.087	51.25648
797.267	67.43357
797.446	48.68238
797.626	92.35806
797.805	90.12618
797.984	57.41286
798.164	93.56551
798.343	56.31272
798.522	84.54216
798.702	75.97546
798.881	48.86536
799.06	70.7037
799.239	28.91114
799.419	54.66522
799.598	123.25237
799.777	91.10901
799.956	114.17608
800.136	64.71895
800.315	57.80984
800.494	90.1044
800.673	105.92053
800.852	95.9558
801.031	104.09386
801.21	95.10777
801.389	65.62418
801.568	83.48396
801.747	136.06779
801.926	78.81993
802.105	129.87153
802.284	63.39537
802.463	122.62144
802.642	84.05772
802.821	86.4652
803	117.93187
803.179	104.98366
803.358	113.79353
803.537	60.3272
803.716	78.94925
803.895	64.33125
804.073	71.83243
804.252	62.76091
804.431	94.0257
804.61	76.20597
804.789	112.34912
804.967	67.77245
805.146	61.18075
805.325	141.45345
805.503	88.90689
805.682	43.5105
805.861	161.83181
806.039	117.92318
806.218	63.48125
806.397	85.2331
806.575	81.27145
806.754	87.7939
806.932	55.87678
807.111	130.76251
807.289	106.9713
807.468	82.86055
807.646	110.70701
807.825	92.27415
808.003	81.84793
808.182	105.47549
808.36	87.43036
808.539	60.46934
808.717	130.89891
808.895	58.94432
809.074	89.20355
809.252	79.86985
809.43	103.38608
809.609	116.93923
809.787	139.71826
809.965	77.51043
810.144	83.74991
810.322	76.21115
810.5	97.566
810.678	75.07864
810.856	152.87547
811.035	114.47157
811.213	104.62796
811.391	125.09934
811.569	90.00794
811.747	190.12114
811.925	126.67893
812.103	58.93613
812.281	76.15475
812.459	146.58429
812.637	141.99343
812.816	116.20667
812.994	147.04067
813.171	118.46106
813.349	103.71848
813.527	126.78292
813.705	131.79978
813.883	173.39996
814.061	122.8601
814.239	148.55723
814.417	161.8622
814.595	100.25221
814.773	101.4065
814.95	92.749
815.128	105.67199
815.306	68.82114
815.484	83.8205
815.662	64.08423
815.839	58.6146
816.017	70.72261
816.195	132.39027
816.372	78.94816
816.55	119.38816
816.728	137.74888
816.905	79.47272
817.083	146.89689
817.261	84.84485
817.438	163.61281
817.616	159.45558
817.793	75.40864
817.971	112.06279
818.148	118.70478
818.326	138.99303
818.503	100.22064
818.681	135.96153
818.858	75.16764
819.036	89.29177
819.213	97.44612
819.391	70.07848
819.568	65.46199
819.745	61.4858
819.923	109.22895
820.1	71.23551
820.277	61.96932
820.455	72.74937
820.632	75.25542
820.809	75.97263
820.986	48.29577
821.164	37.98441
821.341	32.04935
821.518	45.60723
821.695	32.05169
821.872	28.73229
822.05	23.46136
822.227	16.88029
822.404	17.66765
822.581	20.2336
822.758	16.27683
822.935	16.25758
823.112	19.09715
823.289	13.98133
823.466	18.92073
823.643	16.80781
823.82	21.85066
823.997	18.75785
824.174	24.26945
824.351	33.91582
824.528	33.01029
824.705	30.05776
824.882	33.78298
825.059	47.74845
825.236	30.35079
825.412	33.89526
825.589	45.19872
825.766	65.95146
825.943	39.95724
826.12	49.56949
826.296	29.60367
826.473	41.79559
826.65	42.96722
826.827	53.65721
827.003	33.46423
827.18	36.75931
827.357	42.52819
827.533	36.9458
827.71	17.6318
827.887	30.19651
828.063	35.83005
828.24	30.03116
828.416	44.32241
828.593	32.96937
828.769	49.56076
828.946	58.15095
829.122	58.2508
829.299	54.64478
829.475	30.21625
829.652	55.67133
829.828	103.75836
830.005	62.66443
830.181	88.59921
830.357	60.96793
830.534	96.58622
830.71	70.90708
830.886	95.40631
831.063	94.67322
831.239	120.84513
831.415	49.00881
831.592	124.22051
831.768	74.2384
831.944	61.96152
832.12	127.67182
832.296	117.31294
832.473	103.20163
832.649	72.84293
832.825	97.96346
833.001	55.39513
833.177	87.59412
833.353	76.66872
833.529	41.7318
833.705	58.28675
833.881	40.6148
834.058	39.22435
834.234	42.50717
834.41	42.32307
834.586	31.03279
834.761	41.2052
834.937	44.64789
835.113	46.05603
835.289	40.32057
835.465	51.65772
835.641	42.23951
835.817	49.23448
835.993	99.92497
836.169	45.2555
836.344	73.98758
836.52	84.65734
836.696	80.16194
836.872	61.55142
837.048	178.33648
837.223	67.83737
837.399	155.77211
837.575	114.59621
837.75	106.12984
837.926	147.14564
838.102	257.47447
838.277	184.03879
838.453	258.14669
838.628	230.37933
838.804	94.32579
838.98	231.63545
839.155	106.70419
839.331	157.99236
839.506	112.16134
839.682	105.93035
839.857	143.05334
840.033	169.99643
840.208	74.37968
840.384	34.98188
840.559	81.89856
840.734	125.32381
840.91	185.09952
841.085	106.47166
841.26	99.2801
841.436	92.54931
841.611	92.89384
841.786	141.4644
841.962	202.55238
842.137	112.05787
842.312	68.96927
842.487	96.29821
842.663	79.58259
842.838	101.22554
843.013	397.36091
843.188	180.14444
843.363	125.54758
843.538	338.11258
843.714	329.18359
843.889	344.10253
844.064	348.17962
844.239	294.18175
844.414	382.48776
844.589	222.239
844.764	476.21158
844.939	406.10838
845.114	504.37541
845.289	534.11088
845.464	541.77172
845.639	406.91894
845.814	177.03418
845.989	237.05847
846.163	256.56581
846.338	307.1649
846.513	465.86391
846.688	290.48076
846.863	270.45003
847.038	232.68982
847.212	317.75336
847.387	308.0735
847.562	300.83766
847.737	404.16845
847.911	133.32188
848.086	170.22109
848.261	581.9965
848.435	247.21918
848.61	423.55599
848.785	171.58346
848.959	411.83659
849.134	588.1281
849.308	718.00589
849.483	313.78502
849.658	508.48236
849.832	233.91859
850.007	198.71535
850.181	963.51699
850.356	245.76016
850.53	740.60821
850.705	178.37354
850.879	110.25721
851.053	259.46357
851.228	239.48698
851.402	386.43064
851.577	443.66996
851.751	660.77698
851.925	294.14972
852.099	129.35471
852.274	186.72492
852.448	255.44054
852.622	426.82963
852.797	277.95259
852.971	306.64809
853.145	310.77772
853.319	1037.7881
853.493	470.53407
853.668	234.09149
853.842	705.47058
854.016	509.55378
854.19	633.03389
854.364	322.94197
854.538	354.21709
854.712	546.84116
854.886	270.64048
855.06	237.66933
855.234	95.4954
855.408	595.97125
855.582	556.9493
855.756	504.5711
855.93	634.17598
856.104	328.44343
856.278	488.09295
856.452	294.29439
856.626	399.34558
856.8	919.28866
856.973	388.72427
857.147	372.93359
857.321	427.6212
857.495	519.36669
857.669	334.73151
857.842	258.0804
858.016	490.60484
858.19	198.79804
858.364	1276.15813
858.537	269.54467
858.711	313.93034
858.885	276.86931
859.058	241.05008
859.232	117.12488
859.405	158.24033
859.579	463.61448
859.753	397.68022
859.926	244.00223
860.1	129.22502
860.273	306.22676
860.447	570.37549
860.62	283.29018
860.794	701.51766
860.967	327.17813
861.141	603.52775
861.314	1008.15815
861.487	432.21874
861.661	593.17636
861.834	661.39478
862.008	477.65918
862.181	350.91644
862.354	342.13956
862.528	389.46266
862.701	279.85682
862.874	167.04261
863.047	258.95601
863.221	274.95241
863.394	127.06741
863.567	546.68497
863.74	95.2822
863.913	455.01908
864.087	437.15032
864.26	530.47435
864.433	275.49314
864.606	879.29373
864.779	292.9969
864.952	140.20688
865.125	252.35957
865.298	286.89579
865.471	283.48806
865.644	784.89948
865.817	506.29565
865.99	505.98784
866.163	692.83504
866.336	281.73042
866.509	265.67228
866.682	252.49531
866.855	586.92735
867.028	150.33574
867.2	416.20741
867.373	113.00492
867.546	322.92003
867.719	813.23603
867.892	418.406
868.064	234.7078
868.237	370.83264
868.41	369.32821
868.583	140.69827
868.755	205.03419
868.928	281.23256
869.101	880.64363
869.273	531.91586
869.446	394.49292
869.619	609.06344
869.791	305.79918
869.964	510.13824
870.136	488.41182
870.309	395.11829
870.481	308.9006
870.654	151.94079
870.826	411.48003
870.999	237.76483
871.171	400.81742
871.344	230.3734
871.516	274.10423
871.689	201.74885
871.861	387.09829
872.033	201.15695
872.206	265.62015
872.378	462.13448
872.55	264.93534
872.723	176.31335
872.895	287.26628
873.067	490.14943
873.24	504.82444
873.412	253.75489
873.584	288.33217
873.756	260.14213
873.928	321.78418
874.101	351.3805
874.273	396.33403
874.445	116.36224
874.617	165.29218
874.789	312.01251
874.961	264.78706
875.133	381.37175
875.305	304.12627
875.477	202.19904
875.649	139.26624
875.821	179.43558
875.993	563.0929
876.165	186.84507
876.337	320.05103
876.509	294.18122
876.681	318.92403
876.853	344.29921
877.025	377.09718
877.197	202.07476
877.369	182.03083
877.541	437.69445
877.712	97.98844
877.884	176.9676
878.056	352.92054
878.228	185.80844
878.4	385.1388
878.571	192.96054
878.743	119.28684
878.915	307.84773
879.086	179.23267
879.258	218.18814
879.43	187.53936
879.601	169.12008
879.773	180.30358
879.945	40.9787
880.116	67.21134
880.288	39.83225
880.459	44.9255
880.631	31.90088
880.802	38.79071
880.974	35.01607
881.145	22.53831
881.317	31.88505
881.488	21.60115
881.66	24.7756
881.831	22.15766
882.002	31.4584
882.174	21.19796
882.345	28.41336
882.517	12.35387
882.688	35.17941
882.859	26.45052
883.03	45.59379
883.202	44.46045
883.373	35.66587
883.544	35.1555
883.715	64.64368
883.887	56.95476
884.058	47.31718
884.229	68.34192
884.4	71.37715
884.571	84.56273
884.742	71.84074
884.914	76.93458
885.085	122.24473
885.256	174.05549
885.427	144.79258
885.598	154.57334
885.769	173.11359
885.94	165.61876
886.111	106.8638
886.282	212.52568
886.453	152.95392
886.624	115.66928
886.795	218.41858
886.966	174.65683
887.136	233.33674
887.307	152.37287
887.478	363.69318
887.649	285.43306
887.82	303.13989
887.991	241.62438
888.161	301.51172
888.332	286.49381
888.503	125.84692
888.674	476.51391
888.844	570.41993
889.015	371.06846
889.186	150.24107
889.356	512.59286
889.527	130.03997
889.698	1037.82541
889.868	244.2544
890.039	337.99319
890.209	289.79194
890.38	372.45847
890.551	312.22493
890.721	435.64408
890.892	427.03881
891.062	250.36812
891.233	318.1991
891.403	284.36694
891.574	195.19529
891.744	287.78729
891.914	332.20145
892.085	295.18187
892.255	88.84698
892.425	571.65845
892.596	366.86157
892.766	371.26641
892.936	456.64986
893.107	376.96705
893.277	189.89569
893.447	149.84362
893.618	109.28494
893.788	243.45482
893.958	120.84723
894.128	118.95574
894.298	143.24168
894.468	180.00287
894.639	86.56124
894.809	53.49215
894.979	93.15002
895.149	109.11545
895.319	80.79565
895.489	114.85863
895.659	155.30535
895.829	93.24755
895.999	97.03183
896.169	74.58134
896.339	94.49136
896.509	211.44507
896.679	221.4616
896.849	225.25392
897.019	349.91203
897.189	257.96581
897.358	230.33004
897.528	347.05673
897.698	118.35022
897.868	298.43626
898.038	896.28531
898.208	700.05291
898.377	135.37253
898.547	767.2497
898.717	986.29403
898.886	384.82557
899.056	584.33741
899.226	1431.96705
899.395	454.7698
899.565	837.48884
899.735	435.66262
899.904	1035.63022
900.074	994.98621
900.244	242.74668
900.413	1168.50999
900.583	237.10724
900.752	403.55903
900.922	2017.1436
901.091	58.75348
901.261	622.36082
901.43	618.48567
901.599	552.5199
901.769	6975.30249
901.938	687.49033
902.108	747.00574
902.277	1529.96763
902.446	228.78905
902.616	205.42693
902.785	298.83571
902.954	664.81041
903.124	475.55732
903.293	305.8763
903.462	157.95168
903.631	231.63486
903.801	175.85114
903.97	79.24524
904.139	140.57188
904.308	104.09255
904.477	79.74671
904.646	47.22966
904.816	56.20891
904.985	113.89051
905.154	176.37617
