Data from WindowProjectSample_Transmission__47__00047__05381405928402712.txt Node

Date: Mon May 05 18:04:40 EDT 2025
User: jessi
Spectrometer: SR400872
Trigger mode: 0
Integration Time (sec): 5.000010E-1
Scans to average: 20
Electric dark correction enabled: true
Nonlinearity correction enabled: true
Boxcar width: 0
XAxis mode: Wavelengths
Number of Pixels in Spectrum: 3648
>>>>>Begin Spectral Data<<<<<
184.909	21039.80829
185.132	-5228.31153
185.355	-3128.94746
185.578	-18566.70801
185.801	1142.21963
186.024	10512.60256
186.247	-2156.59769
186.47	1050.60361
186.693	420.99804
186.916	194.20167
187.139	-3778.58961
187.362	3494.49162
187.585	4142.02809
187.808	3827.98698
188.031	-24.74905
188.254	-57577.83404
188.476	-754.7475
188.699	6267.42696
188.922	627.34914
189.145	-15700.36382
189.368	-681.80659
189.591	-1462.82177
189.813	3010.28314
190.036	-48972.92307
190.259	-944.8716
190.482	-4453.45744
190.705	7417.03927
190.927	-2395.65675
191.15	13767.69027
191.373	3520.61236
191.595	-8765.95753
191.818	-4158.9162
192.041	-7759.86939
192.263	-3432.48078
192.486	-909.61733
192.709	-3992.16334
192.931	7903.00796
193.154	-29045.67632
193.377	-3002.0909
193.599	-2470.19137
193.822	-9548.94431
194.044	-1986.20248
194.267	1142.59535
194.489	201.85068
194.712	-42538.65296
194.934	-32134.02356
195.157	1320.90974
195.379	1584.64334
195.602	-7094.90381
195.824	-1356.47166
196.047	-8763.11616
196.269	2703.22914
196.492	-6529.59916
196.714	29469.13163
196.936	-8731.423
197.159	-1186.69892
197.381	1210.31494
197.604	361.27811
197.826	12218.55805
198.048	-10911.23277
198.271	-2863.62635
198.493	7905.0607
198.715	2408.21109
198.938	-501.37022
199.16	7399.4762
199.382	-107548.74101
199.604	2858.90791
199.827	-1131.09277
200.049	-3119.73962
200.271	14844.01676
200.493	1220.87976
200.715	-37991.2184
200.938	-6325.8689
201.16	-4074.97032
201.382	20814.18473
201.604	2310.25434
201.826	2304.8122
202.048	-1881.35213
202.27	-2022.84561
202.492	-36253.11326
202.715	2853.89715
202.937	-4601.79398
203.159	-6285.15717
203.381	1427.96058
203.603	6717.82658
203.825	6458.95782
204.047	2222.81522
204.269	-2686.4793
204.491	2231.18368
204.713	5949.63545
204.935	-496784.83789
205.156	1224.0675
205.378	-2976.02189
205.6	1677.01742
205.822	152965.89534
206.044	-916.14222
206.266	1517.26306
206.488	4922.44461
206.71	-5162.37445
206.932	1140.981
207.153	12542.41115
207.375	-6902.49212
207.597	-37733.85054
207.819	-2912.37611
208.041	2467.43431
208.262	473.17491
208.484	747.43313
208.706	-805.23458
208.927	-875.02861
209.149	567.80879
209.371	-3008.36641
209.593	-300.87072
209.814	-868.98167
210.036	564.08502
210.258	-703.98103
210.479	1775.14403
210.701	1650.23809
210.922	3237.3249
211.144	-3647.26477
211.366	2076.92984
211.587	8068.73562
211.809	-8362.21482
212.03	2254.9531
212.252	404.83941
212.473	2093.00369
212.695	-5932.53057
212.916	2988.89359
213.138	-675.10997
213.359	3700.97333
213.581	5086.52635
213.802	-721.89359
214.024	1133.74374
214.245	2127.87061
214.466	2635.34502
214.688	-3261.3408
214.909	-1157.15236
215.131	-1827.39416
215.352	-3394.3628
215.573	14965.93323
215.795	5283.88487
216.016	5560.34439
216.237	823.86708
216.459	3497.90969
216.68	1893.5282
216.901	4816.3308
217.122	-3096.7072
217.344	-12156.72589
217.565	3521.01919
217.786	8960.04951
218.007	17928.10719
218.228	-785.12155
218.45	5675.0604
218.671	825.13343
218.892	39772.60139
219.113	1493.44825
219.334	-360.04671
219.555	10418.16629
219.776	3164.12492
219.997	22197.7001
220.219	2998.37613
220.44	-11514.55
220.661	493.65712
220.882	1553.78053
221.103	-1083.52801
221.324	2320.27154
221.545	2342.2061
221.766	-9315.55401
221.987	952.59959
222.208	1598.45444
222.429	4432.85425
222.65	205.59478
222.87	18483.0803
223.091	705.86603
223.312	653.33309
223.533	1338.57795
223.754	1491.50572
223.975	1369.4739
224.196	2055.28947
224.417	1302.04606
224.637	650.89994
224.858	30.30917
225.079	1115.0345
225.3	632.70433
225.521	3750.94308
225.741	457.22879
225.962	505.82463
226.183	155.57984
226.404	674.47395
226.624	448.39967
226.845	662.8441
227.066	407.90376
227.286	257.68121
227.507	129.8696
227.728	120.08161
227.948	239.45875
228.169	75.08456
228.389	87.68784
228.61	46.22979
228.831	64.85449
229.051	3.01762
229.272	37.75476
229.492	58.02624
229.713	13.40873
229.933	37.68657
230.154	32.20623
230.374	55.43418
230.595	39.11743
230.815	22.79004
231.036	39.69185
231.256	-8.54474
231.477	69.991
231.697	39.58824
231.917	42.16758
232.138	58.43632
232.358	105.67426
232.579	107.15056
232.799	16.6762
233.019	101.44745
233.24	116.07709
233.46	37.83132
233.68	63.78167
233.901	45.31422
234.121	26.86322
234.341	11.63542
234.561	-3.36561
234.782	20.27915
235.002	69.06844
235.222	-5.26351
235.442	67.11735
235.662	32.20416
235.883	59.92779
236.103	50.6838
236.323	37.73865
236.543	30.24537
236.763	38.32855
236.983	43.48457
237.203	41.49946
237.423	61.06342
237.643	89.0478
237.864	76.07743
238.084	19.37235
238.304	25.28736
238.524	43.95737
238.744	38.60962
238.964	74.79688
239.184	61.34954
239.404	65.35634
239.624	35.76376
239.843	59.3335
240.063	36.75171
240.283	23.79446
240.503	26.28566
240.723	27.16329
240.943	13.76544
241.163	20.79173
241.383	14.87811
241.603	7.15419
241.822	9.70671
242.042	6.72553
242.262	8.19973
242.482	9.44718
242.702	10.49741
242.921	3.22886
243.141	6.59338
243.361	6.37857
243.581	9.31384
243.8	7.40236
244.02	4.86174
244.24	9.46135
244.459	9.35054
244.679	18.11951
244.899	10.93196
245.118	13.05611
245.338	12.2465
245.558	13.50077
245.777	8.33927
245.997	10.82634
246.216	10.49827
246.436	6.38779
246.655	4.79276
246.875	3.00455
247.094	6.41261
247.314	1.87707
247.533	3.66946
247.753	4.37272
247.972	3.46236
248.192	1.21305
248.411	1.79879
248.631	3.56041
248.85	4.6878
249.07	3.91934
249.289	6.07797
249.508	4.88885
249.728	7.32571
249.947	6.99582
250.166	9.59453
250.386	4.10438
250.605	6.64884
250.824	11.72925
251.044	7.99242
251.263	28.94856
251.482	14.94025
251.701	11.76798
251.921	-0.12839
252.14	3.29385
252.359	3.9501
252.578	10.06983
252.798	3.1077
253.017	9.2183
253.236	4.16384
253.455	6.10859
253.674	10.00194
253.893	4.88845
254.112	8.42811
254.331	11.23633
254.551	8.37746
254.77	3.56459
254.989	13.40096
255.208	9.82623
255.427	15.52548
255.646	11.43394
255.865	22.17225
256.084	8.51418
256.303	10.74319
256.522	13.89348
256.741	2.41443
256.96	2.46151
257.179	7.47564
257.397	10.61016
257.616	5.23704
257.835	6.40561
258.054	15.49976
258.273	10.69606
258.492	11.46546
258.711	6.70147
258.93	2.93907
259.148	4.75683
259.367	4.73817
259.586	5.605
259.805	2.39837
260.023	5.30887
260.242	3.8253
260.461	2.86554
260.68	1.18761
260.898	4.43529
261.117	1.34897
261.336	0.99322
261.554	3.58911
261.773	3.5509
261.992	0.76409
262.21	3.36584
262.429	3.78763
262.648	7.42406
262.866	8.38808
263.085	5.71236
263.303	5.16017
263.522	8.66666
263.74	9.08281
263.959	15.44046
264.178	7.11981
264.396	6.4793
264.615	4.42484
264.833	10.90475
265.051	9.22879
265.27	11.18273
265.488	11.4715
265.707	6.30189
265.925	11.04453
266.144	4.71143
266.362	5.9376
266.58	5.66357
266.799	5.23339
267.017	6.05152
267.235	5.52218
267.454	3.23885
267.672	1.70374
267.89	4.21861
268.109	4.30249
268.327	4.27799
268.545	0.94188
268.763	4.11898
268.982	1.39952
269.2	4.33245
269.418	2.97513
269.636	1.72714
269.854	4.5619
270.073	3.20753
270.291	1.9933
270.509	1.79097
270.727	4.31243
270.945	7.18084
271.163	7.3333
271.381	1.33273
271.599	3.15394
271.817	5.27332
272.036	2.0274
272.254	3.23147
272.472	2.35658
272.69	2.5791
272.908	2.42101
273.126	4.55547
273.344	5.42301
273.562	1.93333
273.779	2.59366
273.997	3.85805
274.215	4.17433
274.433	3.00096
274.651	4.4076
274.869	4.74577
275.087	2.90129
275.305	4.047
275.523	2.58145
275.74	3.1837
275.958	5.52547
276.176	8.20109
276.394	2.38879
276.612	3.27346
276.829	3.37657
277.047	2.64133
277.265	3.15127
277.483	3.47413
277.7	4.40329
277.918	3.44175
278.136	6.43704
278.353	3.04841
278.571	1.94532
278.789	4.34757
279.006	0.83357
279.224	3.03373
279.442	5.20369
279.659	3.6991
279.877	2.45535
280.094	6.02957
280.312	1.01383
280.529	3.59845
280.747	1.08337
280.964	2.80933
281.182	6.06428
281.399	2.68643
281.617	3.84745
281.834	2.64282
282.052	1.93007
282.269	3.26986
282.487	2.61994
282.704	2.12546
282.921	2.46099
283.139	3.32878
283.356	4.04814
283.574	3.90194
283.791	1.76974
284.008	5.70905
284.226	2.91387
284.443	3.26179
284.66	4.3055
284.877	3.48042
285.095	2.15987
285.312	1.5872
285.529	0.97945
285.746	0.82252
285.964	2.10836
286.181	1.41176
286.398	1.94694
286.615	2.80402
286.832	2.65873
287.05	0.57329
287.267	1.88424
287.484	1.79506
287.701	2.63896
287.918	2.69103
288.135	2.6012
288.352	1.25847
288.569	1.36806
288.786	2.4108
289.003	2.07688
289.22	3.08615
289.437	1.66017
289.654	3.00448
289.871	3.10806
290.088	3.0134
290.305	2.25677
290.522	1.79885
290.739	2.13624
290.956	3.23175
291.173	3.57823
291.39	3.42397
291.607	2.47589
291.824	1.69255
292.04	1.17446
292.257	2.96726
292.474	3.24443
292.691	1.93906
292.908	0.92085
293.125	1.61986
293.341	1.10898
293.558	5.03701
293.775	1.97687
293.992	1.94635
294.208	0.92765
294.425	1.16601
294.642	2.00383
294.858	2.45252
295.075	0.67527
295.292	1.99559
295.508	2.34293
295.725	4.08558
295.942	1.72238
296.158	1.23702
296.375	2.09149
296.591	1.57424
296.808	1.7555
297.024	1.92297
297.241	2.33246
297.458	2.4946
297.674	0.14421
297.891	1.81106
298.107	1.55849
298.323	1.16244
298.54	3.1549
298.756	1.42161
298.973	0.61669
299.189	3.18463
299.406	1.2681
299.622	2.90473
299.838	2.91894
300.055	2.73791
300.271	0.76764
300.487	1.22137
300.704	1.41235
300.92	0.81209
301.136	4.45275
301.353	2.75102
301.569	2.03028
301.785	2.3965
302.001	2.79447
302.218	2.36617
302.434	2.48347
302.65	0.93806
302.866	1.82858
303.083	4.18694
303.299	4.06637
303.515	2.32489
303.731	2.42059
303.947	0.84791
304.163	1.52763
304.379	2.27642
304.595	2.65059
304.812	1.4387
305.028	1.45705
305.244	1.92731
305.46	2.79508
305.676	2.90165
305.892	3.43919
306.108	2.61017
306.324	1.7471
306.54	4.03681
306.756	2.46148
306.972	2.65573
307.187	1.99142
307.403	3.64286
307.619	1.83027
307.835	3.37938
308.051	3.73572
308.267	1.29974
308.483	3.36145
308.699	2.74018
308.914	2.19185
309.13	1.9916
309.346	0.86091
309.562	1.21886
309.778	0.94924
309.993	2.80424
310.209	2.2367
310.425	1.1431
310.641	2.1001
310.856	1.37165
311.072	1.24475
311.288	2.10884
311.503	2.27261
311.719	0.6255
311.935	0.58316
312.15	2.61796
312.366	2.24755
312.581	2.58153
312.797	2.16173
313.013	3.01306
313.228	1.56399
313.444	2.135
313.659	1.66513
313.875	2.7066
314.09	2.10907
314.306	3.50546
314.521	3.08587
314.737	2.89275
314.952	2.14665
315.168	2.12479
315.383	2.6217
315.599	1.96439
315.814	1.8819
316.029	2.87663
316.245	1.14537
316.46	0.67355
316.675	3.41315
316.891	3.97959
317.106	4.91199
317.321	2.55508
317.537	2.90644
317.752	3.10668
317.967	3.32578
318.183	1.48347
318.398	1.9159
318.613	3.10528
318.828	3.58109
319.043	3.07565
319.259	2.0426
319.474	2.6379
319.689	3.43228
319.904	0.84747
320.119	3.13674
320.334	2.76088
320.549	2.06995
320.765	3.3214
320.98	2.74557
321.195	3.08663
321.41	2.17189
321.625	3.09822
321.84	4.20527
322.055	4.00707
322.27	1.8883
322.485	1.40355
322.7	2.66272
322.915	3.17345
323.13	1.63973
323.345	3.74581
323.56	3.49323
323.775	3.04539
323.989	2.83413
324.204	2.5172
324.419	3.48252
324.634	1.36802
324.849	2.27858
325.064	5.46358
325.279	3.38955
325.493	2.86908
325.708	3.31626
325.923	1.82297
326.138	2.01114
326.352	4.02326
326.567	3.38598
326.782	2.01959
326.997	1.97646
327.211	3.07927
327.426	2.80933
327.641	2.1576
327.855	1.10181
328.07	2.78194
328.285	4.06764
328.499	2.05469
328.714	2.73274
328.928	3.0392
329.143	2.44192
329.358	3.40799
329.572	3.40676
329.787	3.6903
330.001	4.85474
330.216	1.33939
330.43	4.32498
330.645	4.12736
330.859	3.48176
331.074	1.86527
331.288	2.61317
331.503	3.92381
331.717	1.56957
331.931	2.80634
332.146	2.78492
332.36	4.32521
332.575	3.05738
332.789	2.93204
333.003	2.74071
333.218	3.08356
333.432	1.93777
333.646	3.41875
333.86	4.12842
334.075	4.14105
334.289	2.15654
334.503	1.75812
334.717	2.91557
334.932	2.94771
335.146	3.76812
335.36	2.38126
335.574	3.29662
335.788	3.13256
336.003	3.67443
336.217	3.24413
336.431	3.16468
336.645	2.13772
336.859	1.71561
337.073	2.51027
337.287	2.93123
337.501	1.72592
337.715	3.00156
337.929	3.42032
338.143	1.71601
338.357	2.55147
338.571	2.09582
338.785	3.20453
338.999	2.23812
339.213	2.23816
339.427	1.51264
339.641	4.05342
339.855	2.42579
340.069	2.11039
340.283	3.54095
340.497	4.48089
340.711	3.12079
340.924	2.65966
341.138	1.817
341.352	1.72293
341.566	2.89437
341.78	1.48306
341.993	2.37901
342.207	1.95668
342.421	2.89115
342.635	2.70234
342.848	2.32296
343.062	0.92962
343.276	2.19369
343.49	4.45785
343.703	2.12368
343.917	3.62519
344.131	3.72867
344.344	2.14636
344.558	2.44634
344.771	1.77724
344.985	4.10548
345.199	4.21716
345.412	3.07854
345.626	3.13109
345.839	1.43556
346.053	1.86042
346.266	1.86036
346.48	3.39322
346.693	3.08792
346.907	3.00393
347.12	2.01693
347.334	3.10423
347.547	3.15113
347.76	2.52611
347.974	3.77184
348.187	3.13274
348.401	2.54209
348.614	2.20328
348.827	2.50151
349.041	3.24695
349.254	1.42622
349.467	2.43141
349.681	1.81729
349.894	2.10666
350.107	3.79207
350.32	4.35308
350.534	1.61221
350.747	2.49378
350.96	2.05376
351.173	2.34389
351.386	2.52282
351.6	2.3603
351.813	2.29085
352.026	2.65737
352.239	1.82425
352.452	2.32896
352.665	3.60174
352.878	2.80272
353.092	4.32922
353.305	3.46505
353.518	2.90098
353.731	2.07692
353.944	3.76584
354.157	2.48133
354.37	2.26011
354.583	1.9474
354.796	1.55016
355.009	3.69577
355.222	3.06069
355.435	2.79895
355.647	3.61848
355.86	2.20261
356.073	2.90572
356.286	2.32222
356.499	3.37804
356.712	3.13303
356.925	3.2636
357.138	3.42545
357.35	2.13266
357.563	2.54444
357.776	2.8684
357.989	2.68179
358.201	3.12625
358.414	3.00509
358.627	3.94396
358.84	2.68137
359.052	1.84646
359.265	2.19271
359.478	3.62849
359.69	1.02754
359.903	3.39722
360.116	3.66863
360.328	1.61301
360.541	3.46378
360.753	2.15234
360.966	2.50807
361.179	2.6176
361.391	2.49098
361.604	2.22552
361.816	2.53892
362.029	2.40394
362.241	2.23348
362.454	2.48542
362.666	2.13959
362.879	3.02758
363.091	2.55177
363.304	2.32804
363.516	2.65133
363.728	1.99598
363.941	3.14565
364.153	2.75989
364.366	1.31418
364.578	2.07979
364.79	2.97934
365.003	2.71693
365.215	2.32877
365.427	3.21414
365.639	3.62465
365.852	2.80199
366.064	4.44667
366.276	2.49433
366.488	3.04805
366.701	2.54901
366.913	2.70384
367.125	2.57807
367.337	2.19349
367.549	2.36709
367.762	2.83525
367.974	2.829
368.186	2.3908
368.398	3.41718
368.61	3.27138
368.822	3.35463
369.034	2.66267
369.246	3.39043
369.458	5.06336
369.67	2.1429
369.882	4.16154
370.094	1.51315
370.306	4.08888
370.518	2.61845
370.73	2.43853
370.942	2.36675
371.154	2.75583
371.366	2.49612
371.578	3.13009
371.79	2.29189
372.002	3.69446
372.214	4.31839
372.425	2.87749
372.637	3.85266
372.849	3.20483
373.061	1.43685
373.273	3.13173
373.484	3.07844
373.696	3.53131
373.908	1.52892
374.12	3.74392
374.331	3.16474
374.543	2.37349
374.755	2.19335
374.967	2.96298
375.178	3.41215
375.39	2.6411
375.602	2.974
375.813	1.83141
376.025	2.18502
376.236	2.94058
376.448	3.16648
376.66	2.63949
376.871	2.68086
377.083	3.877
377.294	4.0546
377.506	2.62714
377.717	3.87089
377.929	3.11158
378.14	2.56248
378.352	3.25133
378.563	3.23547
378.775	3.91823
378.986	2.25342
379.197	2.93424
379.409	2.48253
379.62	3.42635
379.832	3.27931
380.043	2.82079
380.254	3.09922
380.466	2.30731
380.677	5.00138
380.888	4.40903
381.1	4.72688
381.311	4.74004
381.522	3.07243
381.733	4.95153
381.945	2.99039
382.156	3.08563
382.367	2.66725
382.578	4.98628
382.789	4.98986
383.001	2.63891
383.212	4.24604
383.423	4.11956
383.634	3.93079
383.845	3.54999
384.056	2.8048
384.267	3.15023
384.478	3.07542
384.69	2.41535
384.901	3.35572
385.112	3.30891
385.323	4.23998
385.534	3.3887
385.745	3.29996
385.956	3.43651
386.167	2.52272
386.378	3.462
386.588	2.50566
386.799	2.67215
387.01	2.03324
387.221	3.71103
387.432	3.07668
387.643	4.33676
387.854	2.8503
388.065	2.9336
388.275	3.06323
388.486	2.7773
388.697	2.98114
388.908	2.85719
389.119	3.86106
389.329	4.20573
389.54	3.23275
389.751	3.38436
389.962	4.02979
390.172	3.26888
390.383	2.90964
390.594	2.66694
390.804	2.74834
391.015	2.74587
391.226	3.24863
391.436	3.57849
391.647	3.40442
391.858	3.58539
392.068	2.19284
392.279	2.52037
392.489	3.33219
392.7	3.9311
392.91	2.63714
393.121	2.63485
393.331	3.45311
393.542	3.95962
393.752	3.42504
393.963	3.4632
394.173	3.30664
394.384	3.57767
394.594	3.26436
394.804	2.46759
395.015	3.28329
395.225	3.58904
395.436	2.67301
395.646	3.45584
395.856	2.88719
396.067	2.32121
396.277	3.84219
396.487	3.53646
396.697	3.40541
396.908	3.60138
397.118	3.64402
397.328	3.37473
397.538	3.83684
397.749	2.66052
397.959	3.76464
398.169	3.57971
398.379	2.41411
398.589	3.69779
398.8	3.33897
399.01	3.28228
399.22	3.00102
399.43	4.73027
399.64	3.16197
399.85	3.71071
400.06	3.30422
400.27	2.72736
400.48	3.2063
400.69	4.36047
400.9	2.95537
401.11	2.77126
401.32	3.68184
401.53	2.9676
401.74	4.2951
401.95	3.65216
402.16	2.7415
402.37	3.46569
402.58	2.95413
402.79	3.65895
403	3.99302
403.209	2.97429
403.419	4.01279
403.629	2.79018
403.839	3.90885
404.049	3.75837
404.258	2.97103
404.468	2.81706
404.678	3.54403
404.888	4.01514
405.097	3.02591
405.307	3.22984
405.517	3.74263
405.727	3.51167
405.936	3.09186
406.146	3.5343
406.356	4.09484
406.565	3.26345
406.775	3.07683
406.984	2.99971
407.194	4.43352
407.404	3.25848
407.613	3.72969
407.823	3.87174
408.032	3.99914
408.242	4.0239
408.451	2.99268
408.661	3.21975
408.87	4.50898
409.08	3.05642
409.289	3.61664
409.499	3.50762
409.708	3.46272
409.918	2.16981
410.127	3.51577
410.336	4.41566
410.546	3.8352
410.755	3.21913
410.964	3.28361
411.174	2.97433
411.383	3.718
411.592	3.70136
411.802	2.89611
412.011	3.94028
412.22	3.36507
412.429	4.57614
412.639	4.38123
412.848	4.17594
413.057	4.38363
413.266	4.28831
413.475	3.49308
413.685	4.00723
413.894	4.16453
414.103	4.2477
414.312	4.22583
414.521	3.45205
414.73	3.72494
414.939	4.90381
415.148	4.04257
415.357	3.76635
415.566	3.55751
415.776	3.50315
415.985	3.4993
416.194	4.24712
416.403	4.84647
416.611	3.01808
416.82	3.52857
417.029	3.84525
417.238	3.46695
417.447	3.28714
417.656	3.67991
417.865	3.42303
418.074	3.652
418.283	3.88144
418.492	4.37854
418.7	4.17722
418.909	5.02467
419.118	4.1959
419.327	4.51397
419.536	4.28712
419.744	4.1398
419.953	5.21979
420.162	5.28643
420.371	4.49156
420.579	4.67024
420.788	5.59121
420.997	5.62939
421.205	5.75936
421.414	5.51998
421.623	5.5516
421.831	5.24816
422.04	5.80435
422.249	5.0746
422.457	5.53462
422.666	4.87327
422.874	5.72211
423.083	5.77339
423.291	5.77567
423.5	5.57799
423.708	5.78947
423.917	6.1045
424.125	5.75914
424.334	5.5121
424.542	7.01664
424.751	6.47647
424.959	6.17782
425.167	6.39772
425.376	6.26562
425.584	5.43326
425.793	5.50035
426.001	4.75503
426.209	5.20427
426.418	4.32755
426.626	4.25132
426.834	4.09409
427.042	4.38542
427.251	4.10935
427.459	4.95121
427.667	4.47161
427.875	3.84527
428.084	4.09233
428.292	5.15082
428.5	4.74768
428.708	3.85646
428.916	3.85731
429.124	4.45419
429.333	4.17836
429.541	4.2795
429.749	4.48089
429.957	4.4934
430.165	5.96589
430.373	3.63144
430.581	4.53191
430.789	5.30293
430.997	4.35
431.205	4.0371
431.413	4.60854
431.621	4.20843
431.829	4.81408
432.037	4.41851
432.245	4.71704
432.453	4.75905
432.661	4.43319
432.869	5.64269
433.076	4.12147
433.284	4.46375
433.492	4.97055
433.7	5.2036
433.908	4.479
434.116	4.70597
434.323	4.73314
434.531	4.61242
434.739	4.93927
434.947	5.1689
435.154	5.11751
435.362	4.64616
435.57	4.50948
435.778	4.29711
435.985	4.79461
436.193	4.36675
436.401	5.39172
436.608	4.70545
436.816	4.40953
437.023	5.46525
437.231	5.65055
437.439	4.86964
437.646	4.95801
437.854	4.93757
438.061	5.05635
438.269	4.72525
438.476	5.17166
438.684	4.77332
438.891	4.70307
439.099	4.48689
439.306	4.2265
439.514	4.29493
439.721	5.25861
439.929	4.76547
440.136	5.50899
440.343	5.49244
440.551	5.33298
440.758	6.79055
440.965	5.69757
441.173	5.45949
441.38	5.15152
441.587	5.42503
441.795	5.06515
442.002	5.03369
442.209	5.00083
442.416	5.23769
442.624	5.18623
442.831	5.07392
443.038	4.68954
443.245	4.31263
443.452	4.76763
443.66	5.24254
443.867	4.59134
444.074	4.64421
444.281	4.61174
444.488	4.7608
444.695	4.90772
444.902	4.72752
445.109	5.60724
445.316	5.22101
445.523	5.39864
445.73	5.30024
445.937	6.0677
446.144	6.41631
446.351	6.67384
446.558	5.86335
446.765	7.17981
446.972	6.94049
447.179	6.358
447.386	7.09101
447.593	5.90773
447.8	6.62564
448.007	5.5882
448.214	5.35392
448.42	4.97531
448.627	5.58831
448.834	4.96689
449.041	4.9662
449.248	4.85076
449.454	5.33673
449.661	5.83323
449.868	4.78097
450.075	4.68732
450.281	3.92576
450.488	4.36977
450.695	4.49661
450.901	4.5534
451.108	4.62914
451.315	5.43191
451.521	4.76392
451.728	5.53206
451.935	4.5332
452.141	4.94877
452.348	4.852
452.554	4.87231
452.761	4.69896
452.967	5.82041
453.174	5.04537
453.38	5.17092
453.587	4.38267
453.793	5.04406
454	5.49865
454.206	6.14773
454.413	5.48288
454.619	5.28109
454.825	4.58396
455.032	5.49328
455.238	5.43931
455.445	4.43297
455.651	5.02581
455.857	4.10969
456.064	4.79913
456.27	4.77497
456.476	4.85657
456.682	4.30114
456.889	5.2261
457.095	5.16191
457.301	6.31703
457.507	5.06087
457.714	5.0781
457.92	4.97713
458.126	4.61822
458.332	4.94251
458.538	4.78196
458.744	4.95101
458.951	4.92089
459.157	6.6102
459.363	5.68449
459.569	5.93206
459.775	6.55638
459.981	5.9221
460.187	6.41406
460.393	6.6589
460.599	7.00211
460.805	6.23176
461.011	5.71681
461.217	5.94995
461.423	5.76984
461.629	5.19436
461.835	5.54881
462.041	5.08453
462.247	6.08688
462.453	5.01327
462.658	5.16112
462.864	5.54494
463.07	5.26175
463.276	5.28107
463.482	5.18257
463.688	5.87757
463.893	4.7866
464.099	4.99959
464.305	5.96571
464.511	4.88658
464.716	4.98838
464.922	5.64237
465.128	4.77546
465.333	6.2225
465.539	5.45162
465.745	5.13931
465.95	5.17764
466.156	6.7127
466.362	5.84787
466.567	5.13206
466.773	4.98832
466.978	6.01973
467.184	4.73078
467.389	4.27692
467.595	5.41557
467.8	4.82769
468.006	5.96928
468.211	5.83939
468.417	4.65592
468.622	5.47572
468.828	5.65412
469.033	5.44513
469.239	6.70727
469.444	5.03101
469.649	5.76462
469.855	5.2082
470.06	5.24465
470.266	4.84223
470.471	5.57273
470.676	5.50986
470.881	4.41759
471.087	6.08577
471.292	6.73839
471.497	4.67153
471.703	5.24047
471.908	4.99346
472.113	5.33384
472.318	5.76255
472.523	4.8552
472.729	5.51105
472.934	5.58231
473.139	5.04849
473.344	5.48995
473.549	5.91493
473.754	4.9719
473.959	6.82832
474.164	4.88783
474.369	5.26494
474.575	5.74017
474.78	5.32542
474.985	4.99093
475.19	4.3368
475.395	4.87707
475.6	5.26904
475.804	6.13014
476.009	5.30954
476.214	5.38107
476.419	5.19285
476.624	4.48096
476.829	4.84536
477.034	5.76509
477.239	4.93419
477.444	5.72372
477.648	5.70323
477.853	5.67422
478.058	5.21136
478.263	4.92985
478.468	4.80581
478.672	4.87823
478.877	6.13554
479.082	6.2034
479.287	5.58704
479.491	5.38885
479.696	4.86282
479.901	5.69895
480.105	5.74312
480.31	5.12581
480.515	5.35956
480.719	6.54083
480.924	5.18533
481.128	4.93702
481.333	5.58451
481.538	5.49494
481.742	5.5334
481.947	6.28368
482.151	6.88674
482.356	7.17018
482.56	8.62896
482.765	9.41681
482.969	11.29995
483.174	12.60944
483.378	14.84674
483.582	15.27257
483.787	16.75645
483.991	17.07166
484.196	17.48723
484.4	17.25504
484.604	17.92769
484.809	16.01794
485.013	15.42224
485.217	14.1425
485.422	12.62512
485.626	11.49624
485.83	10.68464
486.034	10.26181
486.239	10.36622
486.443	10.45766
486.647	10.44235
486.851	11.24398
487.055	12.15484
487.26	11.91188
487.464	12.59969
487.668	12.23303
487.872	12.59137
488.076	12.91269
488.28	12.39149
488.484	11.65974
488.688	11.46256
488.892	11.02605
489.096	10.38136
489.3	9.47592
489.504	8.87333
489.708	8.52327
489.912	8.20633
490.116	8.13877
490.32	7.49098
490.524	8.29542
490.728	8.78442
490.932	9.08157
491.136	9.5062
491.34	10.47037
491.544	10.72884
491.748	10.53121
491.951	10.80274
492.155	10.35892
492.359	10.33535
492.563	9.30107
492.767	8.84784
492.97	8.14992
493.174	7.24937
493.378	6.69958
493.582	5.68709
493.785	5.67958
493.989	5.66816
494.193	5.72023
494.396	5.40934
494.6	5.98826
494.804	5.54476
495.007	5.22688
495.211	5.2978
495.414	5.35569
495.618	5.64759
495.822	6.17357
496.025	5.51999
496.229	5.91825
496.432	5.19746
496.636	5.61124
496.839	5.45236
497.043	6.31501
497.246	5.68888
497.45	5.36718
497.653	5.69661
497.856	5.69221
498.06	5.12748
498.263	5.5278
498.467	5.4099
498.67	6.0257
498.873	5.73741
499.077	5.47479
499.28	5.4782
499.483	5.66112
499.686	5.87721
499.89	5.66491
500.093	6.0181
500.296	5.15639
500.499	6.30896
500.703	5.49398
500.906	5.7581
501.109	6.32544
501.312	5.45945
501.515	5.41097
501.719	5.71766
501.922	6.11283
502.125	5.60967
502.328	5.38588
502.531	5.06884
502.734	5.5156
502.937	4.71492
503.14	5.60965
503.343	5.1111
503.546	5.35415
503.749	5.09813
503.952	5.88247
504.155	5.10896
504.358	5.72306
504.561	5.53589
504.764	4.90351
504.967	5.47271
505.17	5.44901
505.373	6.25292
505.576	5.54033
505.778	5.82947
505.981	5.21781
506.184	6.10354
506.387	4.63592
506.59	6.49993
506.793	6.0149
506.995	5.77487
507.198	4.62483
507.401	5.82171
507.604	5.74165
507.806	5.09749
508.009	5.12732
508.212	5.8804
508.414	5.16917
508.617	5.27095
508.82	5.49221
509.022	6.26272
509.225	5.62274
509.427	4.8423
509.63	6.1738
509.833	5.51924
510.035	5.35469
510.238	4.78906
510.44	6.16428
510.643	4.66599
510.845	6.52876
511.048	5.68004
511.25	5.22492
511.453	5.4103
511.655	5.67504
511.858	5.35221
512.06	5.9739
512.262	5.54091
512.465	5.91371
512.667	5.17181
512.869	4.97758
513.072	5.64899
513.274	5.84999
513.476	5.71561
513.679	5.94438
513.881	4.99515
514.083	6.31643
514.286	5.12432
514.488	5.17383
514.69	4.976
514.892	4.80449
515.094	5.68862
515.297	5.10034
515.499	5.54859
515.701	5.0218
515.903	6.38596
516.105	6.42513
516.307	5.83903
516.509	4.53181
516.711	4.97286
516.913	5.56206
517.116	5.45915
517.318	5.25089
517.52	6.06155
517.722	5.8441
517.924	4.94415
518.126	5.70357
518.328	5.29801
518.529	5.97704
518.731	6.79217
518.933	5.36093
519.135	5.61755
519.337	6.31991
519.539	5.80165
519.741	4.7425
519.943	5.4285
520.145	5.42139
520.346	5.85619
520.548	5.41504
520.75	5.59709
520.952	5.24708
521.153	5.57682
521.355	5.65981
521.557	5.0086
521.759	5.56705
521.96	5.4947
522.162	4.92164
522.364	5.92833
522.565	5.14234
522.767	5.76396
522.969	6.05038
523.17	5.69374
523.372	5.70534
523.573	5.19488
523.775	5.38874
523.977	5.09915
524.178	6.44466
524.38	5.09145
524.581	5.81866
524.783	5.3701
524.984	5.83523
525.186	5.57691
525.387	6.02603
525.589	5.91677
525.79	5.92932
525.991	5.86644
526.193	6.46982
526.394	5.80616
526.596	6.67579
526.797	6.83117
526.998	6.46189
527.2	6.58672
527.401	8.04309
527.602	8.63528
527.803	10.20426
528.005	10.72542
528.206	11.65453
528.407	12.49174
528.608	12.28301
528.81	12.76697
529.011	12.26695
529.212	13.19518
529.413	12.29607
529.614	11.60074
529.815	11.12393
530.017	10.30755
530.218	9.08749
530.419	7.98724
530.62	7.77896
530.821	7.32211
531.022	6.17338
531.223	6.88155
531.424	6.86394
531.625	6.66204
531.826	6.45668
532.027	6.80163
532.228	7.64972
532.429	7.48765
532.63	7.72479
532.831	8.25292
533.032	8.44469
533.233	9.08677
533.433	8.80949
533.634	9.06848
533.835	8.46042
534.036	8.05531
534.237	7.92329
534.438	7.38489
534.638	6.49918
534.839	6.28075
535.04	6.35918
535.241	5.68512
535.441	6.54713
535.642	6.09647
535.843	5.438
536.043	5.60865
536.244	5.81399
536.445	6.03248
536.645	6.6897
536.846	6.41856
537.047	6.89307
537.247	5.88716
537.448	5.73904
537.648	5.70126
537.849	5.54129
538.049	5.51089
538.25	5.8609
538.451	5.80388
538.651	5.10215
538.851	5.80739
539.052	6.23663
539.252	5.89888
539.453	5.58571
539.653	5.65717
539.854	5.5888
540.054	5.60747
540.254	6.76165
540.455	7.38661
540.655	7.28714
540.855	8.38718
541.056	9.13141
541.256	9.01858
541.456	9.81003
541.657	9.37277
541.857	10.2128
542.057	8.98946
542.257	8.61094
542.458	9.0839
542.658	8.99501
542.858	7.46473
543.058	7.79268
543.258	7.24032
543.458	6.05404
543.659	5.77606
543.859	6.35074
544.059	6.11581
544.259	5.6072
544.459	6.18457
544.659	5.43792
544.859	5.81939
545.059	5.43123
545.259	5.93281
545.459	5.68567
545.659	6.04016
545.859	5.61817
546.059	5.78624
546.259	5.20258
546.459	4.84747
546.659	5.09722
546.859	5.93554
547.059	5.72898
547.258	5.77953
547.458	5.78897
547.658	5.09234
547.858	4.99792
548.058	5.68133
548.258	5.35077
548.457	5.15406
548.657	6.89648
548.857	5.51114
549.057	5.97679
549.256	5.86717
549.456	5.29055
549.656	4.50818
549.855	6.71321
550.055	5.26468
550.255	6.5025
550.454	5.65163
550.654	6.00996
550.853	6.41693
551.053	5.98976
551.253	5.67021
551.452	5.96091
551.652	4.88827
551.851	4.63944
552.051	5.27851
552.25	5.13241
552.45	5.04932
552.649	5.28577
552.849	4.95606
553.048	5.56606
553.248	5.89318
553.447	4.8356
553.646	5.95019
553.846	7.10255
554.045	6.31881
554.244	4.77824
554.444	6.38542
554.643	4.92657
554.842	6.4576
555.042	6.89002
555.241	5.15326
555.44	4.96431
555.64	5.95898
555.839	6.39153
556.038	5.89876
556.237	5.19861
556.436	5.63366
556.636	5.77381
556.835	5.00542
557.034	6.44227
557.233	5.4731
557.432	4.70869
557.631	6.19605
557.83	5.43257
558.029	5.18271
558.228	5.29772
558.427	4.80143
558.626	5.86743
558.825	4.97388
559.024	5.41655
559.223	6.8041
559.422	5.49378
559.621	5.97364
559.82	4.0643
560.019	5.49777
560.218	5.20763
560.417	3.78291
560.616	5.25916
560.815	7.69712
561.014	4.48746
561.212	6.60114
561.411	5.64754
561.61	4.65003
561.809	5.31901
562.008	6.80559
562.206	5.38203
562.405	5.85141
562.604	5.42067
562.803	5.67059
563.001	5.42179
563.2	4.71163
563.399	6.00047
563.597	4.77011
563.796	5.64737
563.995	4.61693
564.193	5.99434
564.392	5.18772
564.59	6.9018
564.789	4.3196
564.988	5.29308
565.186	5.72399
565.385	5.44166
565.583	5.33633
565.782	5.48953
565.98	5.30405
566.179	5.3545
566.377	4.87784
566.575	4.95905
566.774	6.35594
566.972	6.10204
567.171	6.74877
567.369	6.46876
567.567	5.51012
567.766	5.64888
567.964	4.23387
568.162	5.92994
568.361	6.3269
568.559	5.44813
568.757	5.68251
568.956	5.6187
569.154	5.50248
569.352	6.02913
569.55	5.44274
569.748	5.5406
569.947	4.91536
570.145	4.85612
570.343	4.86005
570.541	6.61888
570.739	4.61954
570.937	5.61674
571.135	5.78694
571.333	7.10516
571.532	6.79292
571.73	5.74674
571.928	6.27129
572.126	6.04281
572.324	5.24744
572.522	6.23627
572.72	7.25102
572.918	5.51952
573.116	5.82239
573.313	5.39685
573.511	5.48697
573.709	5.27739
573.907	6.12532
574.105	5.27603
574.303	4.52957
574.501	4.53993
574.699	5.86334
574.896	5.73293
575.094	6.03972
575.292	4.65534
575.49	6.25776
575.688	5.3767
575.885	6.48773
576.083	7.14873
576.281	5.92493
576.478	4.97257
576.676	5.89607
576.874	4.70364
577.071	5.52456
577.269	7.13932
577.467	5.39097
577.664	5.53999
577.862	6.1399
578.059	4.9879
578.257	6.20919
578.455	5.38739
578.652	5.62694
578.85	4.25216
579.047	5.78064
579.245	5.44219
579.442	5.61082
579.64	5.47925
579.837	4.29252
580.034	7.57081
580.232	5.41733
580.429	4.86459
580.627	5.95117
580.824	6.55901
581.021	6.02744
581.219	5.3378
581.416	5.13434
581.613	6.61534
581.811	6.72769
582.008	4.92358
582.205	6.42837
582.402	5.94797
582.6	6.91888
582.797	5.82019
582.994	6.07978
583.191	6.3705
583.388	5.52436
583.586	6.27027
583.783	6.6381
583.98	5.05994
584.177	6.00932
584.374	3.56017
584.571	5.4883
584.768	5.65824
584.965	5.3384
585.162	6.40098
585.359	7.05177
585.556	5.71806
585.753	6.09544
585.95	4.68866
586.147	4.94749
586.344	6.1225
586.541	5.50221
586.738	4.82695
586.935	5.73979
587.132	5.17006
587.329	6.67008
587.526	5.7411
587.722	10.01876
587.919	4.61165
588.116	6.05291
588.313	6.75489
588.51	7.48028
588.706	5.54673
588.903	6.31293
589.1	6.61174
589.297	8.2626
589.493	5.65918
589.69	6.30076
589.887	5.33554
590.083	4.83112
590.28	5.25805
590.477	6.7252
590.673	6.26297
590.87	6.7421
591.067	5.16615
591.263	6.1814
591.46	6.06115
591.656	5.58275
591.853	7.278
592.049	5.15771
592.246	5.3556
592.442	6.64102
592.639	6.88275
592.835	4.90742
593.032	6.1841
593.228	4.71958
593.425	4.74047
593.621	4.69926
593.817	5.96813
594.014	5.0235
594.21	5.9819
594.406	6.78556
594.603	6.09321
594.799	5.35574
594.995	3.93267
595.192	6.72126
595.388	5.45127
595.584	5.32704
595.78	4.75235
595.977	8.04091
596.173	7.22611
596.369	5.61486
596.565	4.9425
596.761	4.58625
596.957	6.64518
597.154	5.06659
597.35	5.39884
597.546	5.13973
597.742	6.04095
597.938	5.84745
598.134	5.07612
598.33	5.91556
598.526	6.91161
598.722	6.14072
598.918	7.41063
599.114	6.4349
599.31	4.86031
599.506	5.84744
599.702	5.24008
599.898	6.21613
600.094	6.64452
600.29	6.78768
600.485	6.71484
600.681	5.40526
600.877	7.55133
601.073	6.08128
601.269	8.01408
601.465	7.44481
601.66	5.19733
601.856	4.26495
602.052	8.01175
602.248	5.76736
602.443	4.31343
602.639	4.84283
602.835	5.26596
603.03	5.15184
603.226	6.70857
603.422	5.1652
603.617	5.69011
603.813	5.57149
604.009	5.31334
604.204	6.82658
604.4	4.59041
604.595	6.69344
604.791	4.87793
604.986	5.95737
605.182	5.04835
605.377	5.41828
605.573	5.50144
605.768	5.79494
605.964	6.1571
606.159	6.37144
606.355	6.77626
606.55	5.58774
606.746	6.7116
606.941	5.90416
607.136	7.63384
607.332	8.54848
607.527	4.93891
607.722	6.3553
607.918	5.88183
608.113	5.19336
608.308	6.79797
608.503	6.45933
608.699	6.34901
608.894	6.37606
609.089	5.2136
609.284	6.26941
609.479	5.47902
609.675	6.45832
609.87	5.66351
610.065	6.38469
610.26	6.66141
610.455	6.43252
610.65	5.78064
610.845	6.22012
611.04	6.62377
611.235	5.77628
611.43	5.83212
611.625	4.80621
611.82	7.27999
612.015	5.4423
612.21	7.74625
612.405	4.7218
612.6	7.89294
612.795	7.63769
612.99	6.95137
613.185	4.90171
613.38	5.39689
613.575	6.42329
613.77	9.22623
613.965	4.69287
614.159	5.34808
614.354	7.5911
614.549	7.3569
614.744	6.94631
614.938	5.16107
615.133	4.97996
615.328	7.80687
615.523	7.75174
615.717	9.44021
615.912	5.94362
616.107	6.44618
616.301	5.94319
616.496	5.45241
616.691	8.20176
616.885	7.18234
617.08	9.33781
617.274	7.51509
617.469	8.64976
617.664	7.18332
617.858	5.93106
618.053	6.75107
618.247	6.17447
618.442	4.25021
618.636	8.06967
618.831	5.75393
619.025	5.81682
619.219	9.90815
619.414	3.26321
619.608	6.29897
619.803	5.46785
619.997	8.96773
620.191	7.69954
620.386	6.80055
620.58	6.40358
620.774	4.46281
620.969	4.81788
621.163	6.8042
621.357	5.22289
621.551	6.36278
621.746	6.74651
621.94	6.12496
622.134	10.56887
622.328	9.0036
622.522	4.67631
622.716	7.81254
622.911	7.60867
623.105	7.58432
623.299	6.75808
623.493	10.3286
623.687	5.61104
623.881	5.81543
624.075	7.6924
624.269	7.95285
624.463	4.21708
624.657	4.64346
624.851	7.42704
625.045	7.4313
625.239	7.47555
625.433	5.7806
625.627	8.74619
625.821	5.83807
626.015	5.51691
626.209	6.55722
626.403	4.6895
626.596	6.98936
626.79	7.31182
626.984	5.09365
627.178	6.96995
627.372	6.87208
627.565	7.17564
627.759	4.97273
627.953	5.19459
628.147	6.9366
628.34	7.40499
628.534	9.01192
628.728	6.08937
628.921	7.65782
629.115	7.41854
629.309	7.66634
629.502	8.14502
629.696	6.93575
629.89	6.35626
630.083	7.16938
630.277	6.91445
630.47	9.00315
630.664	6.39564
630.857	5.07686
631.051	7.93045
631.244	8.31191
631.438	8.07606
631.631	6.05631
631.825	8.49137
632.018	7.43581
632.212	9.07047
632.405	8.35089
632.598	5.91447
632.792	7.0364
632.985	4.06565
633.178	6.4731
633.372	6.76498
633.565	6.65051
633.758	8.38241
633.952	5.87864
634.145	5.76642
634.338	6.74864
634.531	6.45676
634.724	5.63593
634.918	6.94475
635.111	6.51156
635.304	6.1536
635.497	9.85745
635.69	7.34627
635.883	8.44776
636.077	5.46551
636.27	7.63699
636.463	7.42916
636.656	7.44455
636.849	6.53758
637.042	7.63107
637.235	9.86362
637.428	7.77257
637.621	7.76504
637.814	9.36315
638.007	9.36697
638.2	9.33822
638.393	9.71591
638.586	5.5261
638.778	6.75634
638.971	7.00766
639.164	9.43161
639.357	7.97162
639.55	9.56746
639.743	8.22798
639.935	8.38287
640.128	10.76532
640.321	8.72654
640.514	7.80308
640.707	11.11318
640.899	8.58734
641.092	5.46784
641.285	23.38984
641.477	4.45892
641.67	11.48306
641.863	9.54371
642.055	8.04693
642.248	7.82409
642.441	7.30105
642.633	8.5836
642.826	9.25486
643.018	9.98358
643.211	10.77063
643.403	11.0452
643.596	11.32472
643.788	11.274
643.981	7.22169
644.173	9.11226
644.366	7.41471
644.558	5.12551
644.751	9.57571
644.943	6.07544
645.135	10.65764
645.328	10.63854
645.52	9.13914
645.712	9.69498
645.905	13.19014
646.097	6.08532
646.289	8.98811
646.482	11.69543
646.674	6.9102
646.866	9.94905
647.058	9.23522
647.251	6.49995
647.443	7.10724
647.635	7.68441
647.827	6.55339
648.019	6.43444
648.211	8.0138
648.404	8.49035
648.596	11.03034
648.788	8.956
648.98	8.24609
649.172	9.11135
649.364	8.79319
649.556	5.74933
649.748	12.57202
649.94	7.31468
650.132	9.39227
650.324	6.92975
650.516	6.92353
650.708	10.09012
650.9	5.96021
651.092	5.58076
651.284	6.00653
651.476	6.17549
651.667	9.32029
651.859	10.85618
652.051	7.86064
652.243	8.39677
652.435	7.6702
652.627	9.03084
652.818	9.08204
653.01	6.00887
653.202	6.91447
653.394	7.75296
653.585	9.28153
653.777	16.22813
653.969	11.24698
654.16	10.65203
654.352	6.89069
654.544	8.27984
654.735	10.74738
654.927	8.80515
655.118	11.25808
655.31	9.95079
655.502	10.5267
655.693	8.098
655.885	9.39593
656.076	11.38174
656.268	9.20144
656.459	11.57706
656.651	11.13627
656.842	7.9862
657.034	7.39924
657.225	10.22387
657.416	11.41835
657.608	10.92995
657.799	8.64605
657.99	10.70837
658.182	7.3108
658.373	7.45321
658.564	10.57435
658.756	9.07237
658.947	8.18285
659.138	6.9506
659.33	7.44436
659.521	7.20583
659.712	8.14993
659.903	8.04253
660.094	7.44261
660.286	5.92623
660.477	11.49813
660.668	9.38184
660.859	8.20252
661.05	6.49935
661.241	9.75025
661.432	9.60681
661.623	8.37603
661.814	7.84182
662.006	6.20688
662.197	9.35631
662.388	10.88025
662.579	9.54591
662.77	11.35426
662.96	14.23686
663.151	10.9328
663.342	5.9733
663.533	10.01957
663.724	8.9366
663.915	12.77051
664.106	9.45395
664.297	12.90213
664.488	10.43546
664.678	8.68364
664.869	10.95786
665.06	10.65366
665.251	9.53363
665.442	10.76727
665.632	7.48495
665.823	13.63884
666.014	4.26199
666.204	11.09998
666.395	12.28704
666.586	14.40312
666.776	11.37496
666.967	13.18648
667.158	9.6473
667.348	13.13222
667.539	7.75398
667.729	11.53378
667.92	8.2948
668.111	11.63636
668.301	11.4469
668.492	8.99146
668.682	10.0558
668.873	9.36106
669.063	7.3046
669.253	10.17117
669.444	12.84477
669.634	9.71076
669.825	13.14403
670.015	11.86923
670.206	8.50921
670.396	14.35761
670.586	9.57002
670.777	11.0268
670.967	5.68565
671.157	9.36521
671.347	8.73392
671.538	13.13557
671.728	11.37202
671.918	13.97895
672.108	12.24992
672.299	9.68165
672.489	10.82282
672.679	8.79145
672.869	11.07174
673.059	15.03554
673.249	11.45872
673.44	8.15253
673.63	9.511
673.82	12.30729
674.01	7.96827
674.2	11.74379
674.39	16.58733
674.58	11.65338
674.77	10.48883
674.96	10.24809
675.15	19.32285
675.34	13.04182
675.53	10.34769
675.72	9.24151
675.91	7.267
676.099	14.29731
676.289	16.15051
676.479	13.07788
676.669	9.60143
676.859	11.68093
677.049	9.00852
677.238	10.5089
677.428	14.34751
677.618	11.80833
677.808	15.03258
677.997	11.83577
678.187	8.48231
678.377	10.84194
678.567	9.20481
678.756	10.09635
678.946	10.38235
679.136	7.53939
679.325	8.95705
679.515	8.63124
679.704	7.80935
679.894	12.15809
680.084	11.18202
680.273	12.9959
680.463	8.41283
680.652	8.48925
680.842	10.11886
681.031	12.31956
681.221	8.465
681.41	11.3312
681.6	10.11114
681.789	12.08498
681.978	13.41235
682.168	11.40146
682.357	11.36847
682.547	12.17947
682.736	11.31971
682.925	13.91526
683.115	13.57929
683.304	12.59782
683.493	11.69014
683.682	12.31431
683.872	12.4065
684.061	14.05576
684.25	12.44785
684.439	16.99949
684.629	12.90514
684.818	19.87615
685.007	11.46802
685.196	10.54515
685.385	16.13082
685.574	12.59565
685.763	12.39031
685.952	12.43334
686.142	9.15999
686.331	14.73362
686.52	7.95887
686.709	16.95634
686.898	16.39923
687.087	13.45974
687.276	16.24431
687.465	15.4191
687.654	11.14514
687.842	15.66107
688.031	8.71109
688.22	15.47963
688.409	12.99579
688.598	12.63292
688.787	18.42127
688.976	12.44878
689.165	17.40022
689.353	11.58622
689.542	14.00176
689.731	15.18138
689.92	18.41573
690.108	14.52301
690.297	11.55971
690.486	12.93274
690.675	14.27446
690.863	17.31787
691.052	16.77049
691.241	13.98993
691.429	13.95236
691.618	16.61885
691.806	9.78826
691.995	12.41171
692.184	13.03982
692.372	12.19258
692.561	12.97105
692.749	13.55319
692.938	22.61287
693.126	14.50566
693.315	12.3133
693.503	15.06396
693.692	16.38358
693.88	15.36564
694.068	19.29675
694.257	13.95286
694.445	15.37767
694.634	8.45051
694.822	15.83808
695.01	16.79243
695.199	19.9164
695.387	18.00599
695.575	17.52246
695.763	13.4521
695.952	12.78588
696.14	9.53134
696.328	11.84554
696.516	14.36488
696.705	14.35971
696.893	14.3214
697.081	9.00341
697.269	15.99243
697.457	10.45259
697.645	9.66868
697.833	15.12294
698.021	10.99669
698.21	11.35487
698.398	11.77993
698.586	9.57714
698.774	9.0843
698.962	12.07019
699.15	9.50541
699.338	8.17893
699.526	13.47681
699.714	10.34394
699.901	10.4487
700.089	14.33717
700.277	10.52432
700.465	12.15231
700.653	14.36994
700.841	13.69157
701.029	11.06933
701.217	17.22135
701.404	13.27983
701.592	17.41394
701.78	20.03077
701.968	13.17999
702.155	12.68282
702.343	10.26352
702.531	18.46537
702.718	15.43287
702.906	12.02113
703.094	12.25867
703.281	18.15556
703.469	13.48488
703.657	18.26953
703.844	25.33051
704.032	21.0775
704.219	13.07954
704.407	16.19722
704.595	18.8106
704.782	16.59703
704.97	14.27854
705.157	13.57271
705.345	21.48551
705.532	27.17826
705.719	18.46449
705.907	21.65963
706.094	17.6224
706.282	24.44529
706.469	17.97041
706.656	18.77724
706.844	17.17833
707.031	22.22653
707.218	20.54307
707.406	24.55526
707.593	21.78168
707.78	21.42137
707.968	19.60878
708.155	16.6257
708.342	22.14861
708.529	21.87259
708.716	21.31975
708.904	25.19776
709.091	22.16102
709.278	16.49962
709.465	25.79718
709.652	25.30081
709.839	23.623
710.026	19.95229
710.213	13.66189
710.4	19.81244
710.587	21.54724
710.774	23.02849
710.961	23.04359
711.148	19.4561
711.335	22.75408
711.522	19.00544
711.709	21.35886
711.896	26.17045
712.083	22.6112
712.27	16.22658
712.457	20.01333
712.644	14.66876
712.831	27.59709
713.017	20.82743
713.204	22.59169
713.391	17.32465
713.578	22.94031
713.765	24.91032
713.951	20.62093
714.138	31.01597
714.325	19.89268
714.512	18.29001
714.698	15.21408
714.885	23.09494
715.072	18.64567
715.258	18.25057
715.445	15.62805
715.631	22.22972
715.818	8.44212
716.005	15.43716
716.191	19.71628
716.378	15.76089
716.564	20.42597
716.751	13.97405
716.937	15.92458
717.124	20.82953
717.31	14.23808
717.497	25.13035
717.683	14.72468
717.869	25.71487
718.056	15.50416
718.242	20.03907
718.429	17.22068
718.615	13.36235
718.801	17.95622
718.988	22.56997
719.174	19.97614
719.36	16.35895
719.547	23.05118
719.733	19.35718
719.919	18.43418
720.105	20.80338
720.291	18.26929
720.478	19.55737
720.664	16.91444
720.85	16.06173
721.036	30.59337
721.222	25.25566
721.408	17.66349
721.595	26.37244
721.781	25.22903
721.967	23.71961
722.153	25.475
722.339	21.22276
722.525	20.64873
722.711	14.16517
722.897	13.44522
723.083	17.31534
723.269	24.20698
723.455	32.2548
723.641	37.54996
723.827	20.55679
724.012	21.32856
724.198	19.03493
724.384	25.28607
724.57	20.94343
724.756	13.86603
724.942	11.1309
725.127	24.71398
725.313	25.33242
725.499	25.04245
725.685	29.06313
725.87	20.96263
726.056	15.41265
726.242	25.77478
726.428	13.1062
726.613	23.5437
726.799	17.47162
726.985	14.9598
727.17	12.92255
727.356	29.05445
727.541	15.93039
727.727	18.72082
727.913	23.68309
728.098	17.63241
728.284	22.80351
728.469	14.39818
728.655	15.54483
728.84	24.84272
729.026	22.70895
729.211	23.45101
729.397	21.55966
729.582	23.20285
729.767	19.16635
729.953	21.54499
730.138	26.1122
730.323	9.90627
730.509	14.65964
730.694	27.88221
730.879	22.48284
731.065	20.82667
731.25	31.27113
731.435	22.88069
731.621	14.02127
731.806	17.59174
731.991	20.75768
732.176	13.5734
732.361	27.30481
732.547	21.54302
732.732	12.8907
732.917	31.51129
733.102	15.0017
733.287	17.69014
733.472	19.54004
733.657	19.72638
733.842	13.45676
734.027	17.54399
734.212	18.74988
734.397	16.11149
734.582	19.95336
734.767	24.79834
734.952	27.77061
735.137	8.6002
735.322	27.01868
735.507	22.11908
735.692	21.55491
735.877	31.76514
736.062	28.66642
736.247	22.63009
736.431	20.49129
736.616	26.69038
736.801	22.67132
736.986	20.92441
737.171	15.60811
737.355	14.48825
737.54	28.07605
737.725	21.21875
737.909	35.73874
738.094	18.49407
738.279	24.87936
738.463	19.8185
738.648	24.61261
738.833	23.94436
739.017	32.61072
739.202	20.24067
739.386	19.74277
739.571	16.70309
739.756	25.94348
739.94	21.27264
740.125	23.61973
740.309	17.93417
740.494	25.62287
740.678	21.81485
740.863	23.44881
741.047	21.87027
741.231	29.65703
741.416	18.07812
741.6	30.94389
741.785	17.80061
741.969	26.60767
742.153	29.71539
742.338	11.10974
742.522	21.20606
742.706	26.13069
742.89	14.82546
743.075	22.47091
743.259	28.37855
743.443	28.134
743.627	27.4089
743.812	35.17469
743.996	13.64309
744.18	20.81839
744.364	19.43086
744.548	35.7559
744.732	21.0851
744.916	27.44131
745.1	25.44229
745.285	21.34621
745.469	25.38199
745.653	32.40145
745.837	15.68077
746.021	36.52538
746.205	29.35659
746.389	23.75391
746.573	21.13732
746.757	31.05665
746.94	19.50906
747.124	29.33108
747.308	16.04737
747.492	29.60553
747.676	17.90496
747.86	38.7898
748.044	20.51994
748.227	13.68787
748.411	46.90256
748.595	24.49345
748.779	18.01871
748.963	24.9863
749.146	23.78519
749.33	18.81363
749.514	16.93147
749.697	29.58112
749.881	17.64877
750.065	17.67658
750.248	24.11758
750.432	37.36684
750.616	22.12951
750.799	16.57655
750.983	39.48582
751.166	39.10695
751.35	14.67317
751.533	28.15971
751.717	34.44916
751.9	32.68512
752.084	21.23283
752.267	18.08637
752.451	17.75585
752.634	24.08001
752.818	26.83333
753.001	28.93433
753.184	31.34166
753.368	25.38377
753.551	4.72395
753.734	18.02924
753.918	39.85278
754.101	20.06675
754.284	28.83206
754.467	21.1429
754.651	18.90775
754.834	17.90754
755.017	32.05265
755.2	31.39203
755.384	17.69984
755.567	27.71545
755.75	29.09303
755.933	20.47247
756.116	28.76724
756.299	20.55832
756.482	16.95159
756.665	27.26079
756.848	23.58649
757.032	24.72924
757.215	15.39815
757.398	18.44871
757.581	18.90723
757.764	42.39873
757.947	23.8549
758.129	30.08901
758.312	7.03445
758.495	22.75122
758.678	22.34516
758.861	22.10754
759.044	36.03204
759.227	17.04747
759.41	18.48751
759.592	27.37175
759.775	22.06962
759.958	29.06322
760.141	15.94414
760.324	39.41242
760.506	33.78061
760.689	29.18844
760.872	39.03211
761.054	25.87691
761.237	22.39373
761.42	24.75735
761.602	29.47113
761.785	26.16901
761.968	32.10917
762.15	35.97867
762.333	23.25153
762.515	27.18354
762.698	21.5889
762.88	29.54054
763.063	26.59243
763.245	31.22271
763.428	18.63198
763.61	20.3562
763.793	16.31145
763.975	25.39957
764.158	21.7466
764.34	19.92921
764.522	17.26383
764.705	21.44675
764.887	33.10327
765.069	14.23396
765.252	26.4163
765.434	27.52503
765.616	24.65706
765.799	18.36467
765.981	28.3871
766.163	17.54526
766.345	32.38993
766.528	19.80411
766.71	10.16127
766.892	25.6887
767.074	32.39029
767.256	21.9288
767.438	35.9692
767.62	26.64495
767.802	41.32338
767.985	29.7698
768.167	37.30078
768.349	21.04811
768.531	28.62047
768.713	26.77584
768.895	31.33537
769.077	26.77639
769.259	43.68067
769.441	63.29343
769.623	31.11886
769.804	35.63526
769.986	35.5705
770.168	42.16949
770.35	52.4147
770.532	39.6224
770.714	43.00448
770.896	42.32036
771.077	17.18129
771.259	44.75226
771.441	38.48254
771.623	48.34219
771.804	60.9669
771.986	19.13626
772.168	28.98428
772.35	43.89657
772.531	58.83284
772.713	37.21387
772.894	49.29852
773.076	34.51911
773.258	30.4595
773.439	50.08063
773.621	58.09897
773.802	25.90534
773.984	30.20943
774.166	40.69788
774.347	53.70985
774.529	47.55028
774.71	16.37361
774.891	34.84351
775.073	30.99268
775.254	51.30431
775.436	31.33411
775.617	64.47188
775.799	31.95432
775.98	51.70514
776.161	56.98922
776.343	57.87401
776.524	36.66246
776.705	35.26999
776.886	17.00854
777.068	41.45269
777.249	88.73243
777.43	61.91583
777.611	23.82597
777.793	33.57408
777.974	60.24331
778.155	30.85413
778.336	27.34601
778.517	67.74339
778.698	27.06985
778.879	18.29278
779.061	8.00907
779.242	42.75133
779.423	41.13508
779.604	30.93063
779.785	33.32142
779.966	38.77406
780.147	51.64867
780.328	49.32968
780.509	70.02422
780.69	48.78496
780.871	29.35942
781.051	20.04528
781.232	38.45342
781.413	41.02662
781.594	32.75857
781.775	32.59686
781.956	30.25282
782.137	14.84067
782.317	32.47324
782.498	40.00126
782.679	38.09335
782.86	40.71723
783.04	29.38673
783.221	39.66639
783.402	63.6821
783.583	38.16984
783.763	48.26346
783.944	31.33169
784.124	21.32019
784.305	59.59953
784.486	46.082
784.666	36.88301
784.847	20.13497
785.027	81.58837
785.208	28.80884
785.388	27.36065
785.569	28.85479
785.749	35.28504
785.93	32.2169
786.11	20.27301
786.291	45.07149
786.471	41.07668
786.652	47.91219
786.832	35.89777
787.012	39.94451
787.193	25.20737
787.373	37.96423
787.553	31.82649
787.734	39.59353
787.914	32.14676
788.094	49.90487
788.275	39.76791
788.455	34.80101
788.635	24.17437
788.815	40.85656
788.995	25.45587
789.176	21.00246
789.356	28.61283
789.536	35.96524
789.716	42.20433
789.896	28.59299
790.076	31.18334
790.256	41.69829
790.436	13.66428
790.616	25.38659
790.796	40.48048
790.976	32.67251
791.156	29.02536
791.336	43.56451
791.516	40.09114
791.696	33.82534
791.876	20.66154
792.056	38.64876
792.236	49.41249
792.416	46.74119
792.596	42.42016
792.776	42.617
792.956	46.1752
793.135	58.78489
793.315	24.99625
793.495	51.38527
793.675	46.62593
793.854	46.06392
794.034	48.78303
794.214	24.38056
794.394	48.39601
794.573	52.26788
794.753	40.09017
794.933	27.8627
795.112	38.53229
795.292	50.23242
795.472	59.76931
795.651	23.10127
795.831	37.20669
796.01	34.26107
796.19	33.23937
796.369	35.81883
796.549	43.62297
796.728	34.1796
796.908	21.74519
797.087	23.49164
797.267	34.11822
797.446	24.60613
797.626	42.73571
797.805	41.29175
797.984	27.75287
798.164	46.64092
798.343	27.58188
798.522	39.12023
798.702	37.54564
798.881	22.38681
799.06	32.83804
799.239	15.31498
799.419	28.76702
799.598	59.50063
799.777	43.25041
799.956	49.74569
800.136	34.69644
800.315	25.74745
800.494	40.87891
800.673	48.16933
800.852	44.56132
801.031	52.22402
801.21	44.54294
801.389	30.25477
801.568	39.3671
801.747	61.69543
801.926	36.58872
802.105	56.5078
802.284	31.29429
802.463	57.95758
802.642	41.71956
802.821	40.35916
803	55.94972
803.179	50.25185
803.358	50.9698
803.537	30.31981
803.716	38.49946
803.895	30.80765
804.073	34.32503
804.252	28.57043
804.431	42.368
804.61	34.64
804.789	48.52964
804.967	32.13806
805.146	32.29912
805.325	66.34875
805.503	42.15549
805.682	22.50314
805.861	82.30983
806.039	55.36739
806.218	30.46318
806.397	39.42138
806.575	36.27818
806.754	43.2669
806.932	26.16295
807.111	51.51714
807.289	49.07745
807.468	39.11276
807.646	51.27484
807.825	42.92916
808.003	41.1644
808.182	51.0916
808.36	37.27937
808.539	27.85479
808.717	59.37673
808.895	30.95631
809.074	42.70022
809.252	35.82508
809.43	47.03676
809.609	53.41577
809.787	58.50158
809.965	36.66835
810.144	37.614
810.322	34.27622
810.5	44.71644
810.678	34.07543
810.856	69.91788
811.035	52.47449
811.213	47.71866
811.391	57.28534
811.569	43.3105
811.747	92.98995
811.925	52.34126
812.103	29.06249
812.281	37.42025
812.459	65.81811
812.637	63.69559
812.816	51.16069
812.994	71.34185
813.171	60.19807
813.349	47.90284
813.527	52.51528
813.705	61.34483
813.883	78.64256
814.061	53.45623
814.239	66.12477
814.417	73.58199
814.595	49.58661
814.773	46.42288
814.95	41.09248
815.128	48.73922
815.306	43.79929
815.484	38.67282
815.662	30.03375
815.839	25.00896
816.017	34.32967
816.195	56.45441
816.372	36.65172
816.55	51.16141
816.728	65.38887
816.905	39.02978
817.083	65.62328
817.261	43.52535
817.438	86.34979
817.616	67.16918
817.793	35.00863
817.971	51.90352
818.148	48.86238
818.326	59.7316
818.503	46.85951
818.681	67.96398
818.858	37.6169
819.036	40.69431
819.213	45.20167
819.391	34.35952
819.568	33.40093
819.745	29.60355
819.923	49.92601
820.1	37.28762
820.277	30.75163
820.455	36.50111
820.632	39.42278
820.809	42.33511
820.986	27.50346
821.164	22.28857
821.341	19.4821
821.518	30.44108
821.695	21.57596
821.872	18.89154
822.05	16.36128
822.227	12.82773
822.404	13.51416
822.581	16.21223
822.758	13.11964
822.935	13.31783
823.112	14.53087
823.289	12.33489
823.466	15.48041
823.643	14.13534
823.82	17.3191
823.997	15.49425
824.174	18.44376
824.351	24.79332
824.528	22.85477
824.705	20.31359
824.882	24.10488
825.059	30.65769
825.236	21.88722
825.412	23.63931
825.589	27.71055
825.766	41.21512
825.943	25.07159
826.12	30.09273
826.296	20.83284
826.473	27.05108
826.65	27.30694
826.827	32.07438
827.003	20.85956
827.18	24.09111
827.357	26.99557
827.533	22.57487
827.71	12.47646
827.887	20.47093
828.063	22.60514
828.24	18.95455
828.416	25.91978
828.593	21.76148
828.769	30.8538
828.946	31.18871
829.122	33.07751
829.299	31.90119
829.475	19.42283
829.652	31.41799
829.828	51.98856
830.005	32.93264
830.181	45.23067
830.357	33.89163
830.534	47.09366
830.71	37.34913
830.886	47.20469
831.063	41.73316
831.239	57.15621
831.415	26.8854
831.592	60.34539
831.768	37.77837
831.944	32.55439
832.12	64.69051
832.296	60.72349
832.473	49.96762
832.649	34.09717
832.825	50.84592
833.001	29.35766
833.177	43.76736
833.353	40.78876
833.529	23.56775
833.705	36.69559
833.881	24.36386
834.058	23.08769
834.234	24.91166
834.41	25.08004
834.586	19.33439
834.761	23.21978
834.937	26.17639
835.113	26.84371
835.289	22.63366
835.465	26.97236
835.641	24.26363
835.817	27.54924
835.993	47.33931
836.169	23.61967
836.344	37.19497
836.52	43.06756
836.696	38.14222
836.872	32.02836
837.048	90.72335
837.223	35.03738
837.399	68.12764
837.575	51.40953
837.75	49.98966
837.926	71.38552
838.102	103.32324
838.277	80.62018
838.453	113.11372
838.628	112.71111
838.804	41.60625
838.98	98.22458
839.155	51.17
839.331	74.09401
839.506	49.61712
839.682	50.25434
839.857	70.79603
840.033	83.7277
840.208	36.40691
840.384	20.71348
840.559	40.8349
840.734	60.23778
840.91	78.9557
841.085	48.25031
841.26	46.274
841.436	42.90296
841.611	43.30472
841.786	62.83099
841.962	82.58993
842.137	52.44701
842.312	30.91077
842.487	45.93554
842.663	39.53101
842.838	45.80379
843.013	152.36515
843.188	78.18512
843.363	75.54809
843.538	127.5449
843.714	133.42151
843.889	130.9829
844.064	143.17842
844.239	117.49411
844.414	133.0427
844.589	90.46759
844.764	164.24656
844.939	163.14034
845.114	178.05824
845.289	164.11314
845.464	227.78463
845.639	162.25492
845.814	77.43854
845.989	89.95346
846.163	108.76833
846.338	116.7203
846.513	163.71194
846.688	109.89881
846.863	113.64864
847.038	95.84372
847.212	120.68819
847.387	114.43567
847.562	122.17913
847.737	151.4226
847.911	55.94666
848.086	68.9817
848.261	208.10774
848.435	104.76817
848.61	150.42604
848.785	84.02264
848.959	161.07172
849.134	218.27612
849.308	231.49751
849.483	117.89773
849.658	187.07724
849.832	95.50968
850.007	88.23343
850.181	253.59694
850.356	96.44418
850.53	235.8044
850.705	79.16021
850.879	46.12016
851.053	113.73153
851.228	98.78121
851.402	135.03284
851.577	169.21865
851.751	187.49851
851.925	130.96611
852.099	58.545
852.274	84.33002
852.448	117.46784
852.622	132.91656
852.797	116.52943
852.971	113.04409
853.145	121.31799
853.319	347.45491
853.493	176.77331
853.668	96.96806
853.842	217.44551
854.016	181.77348
854.19	204.71463
854.364	126.01838
854.538	139.54304
854.712	195.60836
854.886	114.7571
855.06	105.54306
855.234	43.15843
855.408	193.68896
855.582	162.96739
855.756	168.1954
855.93	220.4485
856.104	145.34709
856.278	168.38678
856.452	123.23106
856.626	163.92145
856.8	260.4236
856.973	150.85419
857.147	140.1542
857.321	146.2069
857.495	176.00651
857.669	125.29111
857.842	104.79372
858.016	179.02289
858.19	89.76587
858.364	288.56599
858.537	104.35382
858.711	133.76599
858.885	117.69021
859.058	98.63319
859.232	54.59121
859.405	64.36956
859.579	166.0541
859.753	145.2358
859.926	95.57387
860.1	68.50744
860.273	128.90014
860.447	206.996
860.62	113.08932
860.794	250.84568
860.967	138.82104
861.141	185.8822
861.314	266.42859
861.487	153.93374
861.661	204.88916
861.834	206.2018
862.008	183.64142
862.181	128.28227
862.354	133.75028
862.528	146.90276
862.701	107.33688
862.874	72.40875
863.047	112.51993
863.221	106.52312
863.394	60.29363
863.567	204.65978
863.74	41.09259
863.913	169.42499
864.087	139.72407
864.26	172.04558
864.433	124.73112
864.606	229.64467
864.779	128.27508
864.952	63.50445
865.125	105.21514
865.298	124.28208
865.471	126.02758
865.644	258.91403
865.817	209.04066
865.99	172.27189
866.163	199.68606
866.336	111.52413
866.509	124.7373
866.682	103.80455
866.855	192.69412
867.028	82.11992
867.2	164.26439
867.373	52.71681
867.546	140.45655
867.719	270.03173
867.892	160.59959
868.064	89.71853
868.237	150.18929
868.41	128.05371
868.583	70.85676
868.755	78.62714
868.928	122.62049
869.101	270.59398
869.273	193.64962
869.446	159.40027
869.619	183.65222
869.791	126.80375
869.964	192.08095
870.136	174.1421
870.309	139.50785
870.481	139.58519
870.654	61.01659
870.826	147.163
870.999	111.02816
871.171	181.43139
871.344	102.94483
871.516	131.21826
871.689	92.87117
871.861	142.29382
872.033	94.83382
872.206	120.12273
872.378	182.59465
872.55	121.56166
872.723	75.82176
872.895	124.94031
873.067	189.22668
873.24	206.60986
873.412	110.39714
873.584	125.09793
873.756	114.61179
873.928	156.23341
874.101	145.74938
874.273	163.73261
874.445	56.64895
874.617	75.04129
874.789	144.98634
874.961	109.8871
875.133	161.8343
875.305	129.05749
875.477	92.0364
875.649	71.3132
875.821	89.85875
875.993	225.97417
876.165	89.26289
876.337	150.03747
876.509	116.67631
876.681	149.87465
876.853	139.04963
877.025	144.04114
877.197	93.47126
877.369	87.44822
877.541	178.41502
877.712	45.51094
877.884	84.2399
878.056	165.45136
878.228	86.47212
878.4	158.60095
878.571	86.97841
878.743	61.79609
878.915	145.92396
879.086	81.70972
879.258	106.91145
879.43	93.58747
879.601	84.57583
879.773	89.13832
879.945	22.37375
880.116	38.10421
880.288	24.2818
880.459	26.0883
880.631	19.93434
880.802	23.88021
880.974	22.09499
881.145	15.30094
881.317	21.55361
881.488	15.95985
881.66	17.32557
881.831	15.48115
882.002	22.88377
882.174	16.00991
882.345	21.2251
882.517	11.34735
882.688	24.95084
882.859	21.33169
883.03	34.85763
883.202	31.92106
883.373	27.82091
883.544	27.56978
883.715	50.12909
883.887	40.15923
884.058	35.23993
884.229	50.17203
884.4	50.50906
884.571	56.35213
884.742	50.16922
884.914	54.73706
885.085	79.0143
885.256	100.10852
885.427	82.02192
885.598	98.0112
885.769	100.76305
885.94	93.03097
886.111	65.96116
886.282	115.43051
886.453	93.66238
886.624	67.15432
886.795	114.20278
886.966	97.13908
887.136	124.69396
887.307	90.73106
887.478	153.3506
887.649	141.5321
887.82	141.75842
887.991	112.10175
888.161	161.6792
888.332	150.47586
888.503	73.63648
888.674	201.47425
888.844	211.52842
889.015	169.55156
889.186	77.1081
889.356	200.88591
889.527	76.47467
889.698	350.12045
889.868	111.6173
890.039	145.84879
890.209	133.28843
890.38	169.97821
890.551	147.5535
890.721	206.14439
890.892	166.90912
891.062	122.17342
891.233	152.94072
891.403	119.70927
891.574	90.1506
891.744	113.00459
891.914	150.53057
892.085	132.00243
892.255	51.745
892.425	211.28967
892.596	161.31991
892.766	149.32793
892.936	212.5531
893.107	171.80599
893.277	93.48502
893.447	72.38735
893.618	50.98235
893.788	111.8807
893.958	53.60464
894.128	61.44558
894.298	69.40685
894.468	100.13807
894.639	43.99262
894.809	29.93874
894.979	48.62809
895.149	56.95495
895.319	46.74535
895.489	64.8872
895.659	81.66624
895.829	56.06838
895.999	59.17205
896.169	40.93573
896.339	53.05742
896.509	109.76702
896.679	126.75698
896.849	122.00016
897.019	170.64819
897.189	129.85589
897.358	115.00796
897.528	172.9891
897.698	64.13807
897.868	158.44854
898.038	271.7395
898.208	253.45603
898.377	86.96871
898.547	266.67259
898.717	413.52582
898.886	158.55945
899.056	257.09268
899.226	384.63057
899.395	220.3914
899.565	302.45041
899.735	198.55179
899.904	328.35853
900.074	272.42559
900.244	128.49038
900.413	489.38727
900.583	106.54702
900.752	178.86593
900.922	299.02655
901.091	37.03369
901.261	269.71028
901.43	247.76656
901.599	243.35369
901.769	556.75863
901.938	286.68697
902.108	274.58667
902.277	359.82317
902.446	104.70456
902.616	117.82399
902.785	169.53943
902.954	288.46552
903.124	187.64067
903.293	152.16788
903.462	84.41786
903.631	115.80179
903.801	84.2065
903.97	44.07286
904.139	76.80613
904.308	58.23161
904.477	47.26744
904.646	25.9696
904.816	43.20241
904.985	62.69149
905.154	96.61804
