Data from WindowProjectSample_Transmission__45__00045.txt Node

Date: Sat May 03 16:37:06 EDT 2025
User: jessi
Spectrometer: SR400872
Trigger mode: 0
Integration Time (sec): 5.000010E-1
Scans to average: 6
Electric dark correction enabled: true
Nonlinearity correction enabled: true
Boxcar width: 0
XAxis mode: Wavelengths
Number of Pixels in Spectrum: 3648
>>>>>Begin Spectral Data<<<<<
184.909	179965.73226
185.132	1626.0002
185.355	-2013.06974
185.578	3343.24076
185.801	-697.58855
186.024	5829.43991
186.247	1120.97674
186.47	891.44453
186.693	-437.55084
186.916	239.59194
187.139	10214.33279
187.362	3813.13096
187.585	2688.55876
187.808	-1296.35051
188.031	-121.98439
188.254	6595.80581
188.476	567.77194
188.699	-3980.42106
188.922	-318.38742
189.145	-4217.90537
189.368	-408.5982
189.591	-989.14713
189.813	-2168.16383
190.036	4876.33107
190.259	3576.17323
190.482	2211.88011
190.705	8604.79642
190.927	-1592.83538
191.15	-1675.27052
191.373	4829.68131
191.595	-2036.99443
191.818	9018.09758
192.041	-284.36214
192.263	-2510.88089
192.486	-915.05039
192.709	9608.15483
192.931	-2549.49514
193.154	-1996.21302
193.377	4329.77494
193.599	5934.95451
193.822	-1803.95387
194.044	-1880.23268
194.267	597.93128
194.489	10.30101
194.712	2090.90074
194.934	3468.12545
195.157	-7134.68309
195.379	2291.33933
195.602	4956.41419
195.824	6112.15012
196.047	-8345.31849
196.269	-10501.45843
196.492	-1148.71786
196.714	-5023.6084
196.936	4469.79163
197.159	-2434.09205
197.381	-542.5701
197.604	1026.15223
197.826	-3416.20167
198.048	-1287.73738
198.271	-12288.49812
198.493	10100.44411
198.715	-2536.27274
198.938	-608.278
199.16	-3722.59745
199.382	1724.85756
199.604	-1452.03559
199.827	-1248.17063
200.049	-4252.83235
200.271	2397.18506
200.493	-26317.17658
200.715	4775.91335
200.938	12720.49053
201.16	-240716.31594
201.382	-5722.25511
201.604	-1045.53095
201.826	-6177.60864
202.048	-7184.32934
202.27	-4820.47956
202.492	-3860.38656
202.715	-1401.74639
202.937	-3497.2514
203.159	1070.4645
203.381	-93850.24193
203.603	-1003.15502
203.825	-1354.04245
204.047	2022.55219
204.269	-859.68101
204.491	6946.85194
204.713	-8833
204.935	37009.81806
205.156	2060.70314
205.378	-7815.75778
205.6	-1645.85332
205.822	6472.3169
206.044	-248.45236
206.266	-1984.12487
206.488	741.01504
206.71	-537108.49137
206.932	-15833.61129
207.153	11131.13007
207.375	-2233.4832
207.597	15005.03087
207.819	1682.09514
208.041	6444.31155
208.262	646.35132
208.484	-846.37888
208.706	-842.29625
208.927	10057.49449
209.149	-7152.47855
209.371	-2622.02962
209.593	-1862.74238
209.814	-4032.8071
210.036	3023.16327
210.258	-708.21777
210.479	1967.31436
210.701	810.20111
210.922	4159.68366
211.144	-1563.39358
211.366	6061.60951
211.587	-434.58386
211.809	-3732.72582
212.03	-2290.24041
212.252	-353.88979
212.473	2541.85398
212.695	-749.44882
212.916	-856.91366
213.138	733.28612
213.359	-1236.69224
213.581	-3134.14177
213.802	-1438.08512
214.024	10694.40861
214.245	-919.24597
214.466	-160.31609
214.688	-3715.17762
214.909	-697.3603
215.131	9303.38765
215.352	-1190.521
215.573	-247115.23924
215.795	4428.76831
216.016	-3883.95148
216.237	-556.77462
216.459	-11692.64004
216.68	-1554.60348
216.901	-1757.42512
217.122	1792.27473
217.344	-8633.42583
217.565	-1576.82065
217.786	22881.68593
218.007	911.87273
218.228	-3705.34294
218.45	-5773.3788
218.671	-1456.35729
218.892	861.02377
219.113	1652.83082
219.334	363.30142
219.555	-6325.46298
219.776	33370.41518
219.997	-6497.01667
220.219	-10145.92138
220.44	-4889.04588
220.661	-1220.3063
220.882	12086.74528
221.103	-928.26939
221.324	2231.07158
221.545	-6301.97441
221.766	-1452.27262
221.987	-464.94085
222.208	1857.8063
222.429	6659.8303
222.65	-198.27797
222.87	-803.04426
223.091	39280.53598
223.312	663.40868
223.533	-2062.79839
223.754	3731.25881
223.975	1618.71601
224.196	-746.64664
224.417	-29846.86686
224.637	-2166.83116
224.858	517.36511
225.079	3846.93571
225.3	1572.60065
225.521	3562.68287
225.741	-2593.22028
225.962	1626.70797
226.183	1121.5892
226.404	1851.8597
226.624	1865.05735
226.845	1376.36882
227.066	2310.0008
227.286	676.48022
227.507	390.28369
227.728	381.0038
227.948	535.06208
228.169	139.51986
228.389	131.29392
228.61	54.72278
228.831	80.31738
229.051	10.87029
229.272	46.63461
229.492	62.77547
229.713	20.37915
229.933	49.00927
230.154	41.93634
230.374	67.5289
230.595	50.843
230.815	36.58358
231.036	50.34978
231.256	-12.55992
231.477	110.82684
231.697	65.04658
231.917	56.83719
232.138	82.3081
232.358	192.69411
232.579	174.80233
232.799	18.8412
233.019	155.18505
233.24	230.5152
233.46	65.0667
233.68	97.0222
233.901	88.33241
234.121	44.6337
234.341	24.2694
234.561	-1.02896
234.782	32.35506
235.002	120.60163
235.222	1.99721
235.442	89.91219
235.662	45.30357
235.883	101.99336
236.103	91.44269
236.323	57.46765
236.543	50.59752
236.763	77.61707
236.983	63.08437
237.203	77.19931
237.423	103.09786
237.643	149.99118
237.864	143.78953
238.084	32.8945
238.304	49.7866
238.524	87.49573
238.744	71.18619
238.964	112.4419
239.184	103.37114
239.404	103.59301
239.624	51.13788
239.843	94.91762
240.063	51.16596
240.283	35.83874
240.503	37.64647
240.723	36.61969
240.943	17.33024
241.163	26.72539
241.383	19.66432
241.603	10.12225
241.822	11.83152
242.042	8.92776
242.262	10.09395
242.482	11.95952
242.702	14.59202
242.921	4.63294
243.141	10.30889
243.361	8.6442
243.581	13.12202
243.8	10.60124
244.02	6.93896
244.24	14.73387
244.459	14.25523
244.679	27.49172
244.899	17.16636
245.118	20.95511
245.338	17.32364
245.558	20.75717
245.777	11.74211
245.997	13.43798
246.216	13.83509
246.436	7.81289
246.655	5.33478
246.875	4.42409
247.094	7.89414
247.314	2.85391
247.533	4.40831
247.753	5.67423
247.972	4.22016
248.192	1.52703
248.411	3.2713
248.631	5.38058
248.85	6.74715
249.07	5.29752
249.289	8.40981
249.508	7.01427
249.728	10.08719
249.947	11.15886
250.166	12.447
250.386	6.54868
250.605	11.86908
250.824	14.71801
251.044	10.70983
251.263	37.11569
251.482	19.41846
251.701	16.77726
251.921	0.33693
252.14	5.25085
252.359	5.83181
252.578	14.55121
252.798	4.1515
253.017	12.88269
253.236	6.84131
253.455	8.44497
253.674	17.21435
253.893	8.05464
254.112	10.43961
254.331	16.51431
254.551	12.82862
254.77	6.73832
254.989	22.38055
255.208	17.49487
255.427	22.92109
255.646	19.55723
255.865	32.13585
256.084	12.98454
256.303	15.89269
256.522	20.05265
256.741	4.58228
256.96	6.46179
257.179	11.13281
257.397	16.16265
257.616	8.24693
257.835	9.33301
258.054	20.7929
258.273	13.30207
258.492	16.14558
258.711	9.07561
258.93	3.96025
259.148	5.6393
259.367	5.51516
259.586	7.15147
259.805	3.325
260.023	6.56381
260.242	5.16249
260.461	3.65002
260.68	2.05244
260.898	6.03665
261.117	1.99115
261.336	1.3058
261.554	5.20144
261.773	5.06409
261.992	0.78049
262.21	4.94071
262.429	6.47384
262.648	10.54137
262.866	11.78097
263.085	7.88419
263.303	6.50522
263.522	13.04635
263.74	12.85069
263.959	20.59158
264.178	11.10998
264.396	10.70921
264.615	7.28762
264.833	17.33417
265.051	14.44029
265.27	13.6065
265.488	14.9975
265.707	9.38658
265.925	16.08453
266.144	6.37369
266.362	8.97214
266.58	8.7768
266.799	6.55674
267.017	8.30404
267.235	7.6137
267.454	4.81708
267.672	2.97394
267.89	6.21472
268.109	6.22286
268.327	6.19623
268.545	1.8984
268.763	5.30979
268.982	2.48037
269.2	7.26026
269.418	4.35194
269.636	3.10233
269.854	5.80844
270.073	4.94086
270.291	2.23319
270.509	2.82835
270.727	6.0991
270.945	10.05441
271.163	10.04655
271.381	2.20109
271.599	4.01415
271.817	7.09746
272.036	2.53256
272.254	4.57872
272.472	3.56816
272.69	3.62072
272.908	3.52701
273.126	5.91735
273.344	7.22635
273.562	2.89949
273.779	3.68276
273.997	5.14393
274.215	6.32743
274.433	4.02596
274.651	6.23292
274.869	7.05563
275.087	3.64207
275.305	5.62757
275.523	3.48246
275.74	4.49509
275.958	7.64982
276.176	10.7702
276.394	3.59676
276.612	4.75225
276.829	4.63923
277.047	3.6691
277.265	4.42135
277.483	4.94203
277.7	6.15889
277.918	4.91103
278.136	8.40295
278.353	4.17481
278.571	2.49569
278.789	6.96753
279.006	1.44727
279.224	4.44382
279.442	7.07514
279.659	4.84187
279.877	3.75736
280.094	8.05996
280.312	1.59208
280.529	4.53689
280.747	1.56619
280.964	3.33501
281.182	8.54006
281.399	3.74952
281.617	5.5458
281.834	3.57128
282.052	3.24153
282.269	4.23364
282.487	3.43802
282.704	3.03962
282.921	3.1052
283.139	4.45623
283.356	5.72087
283.574	5.02069
283.791	2.68205
284.008	7.31834
284.226	3.89726
284.443	4.41256
284.66	5.59647
284.877	4.57417
285.095	3.03906
285.312	2.03793
285.529	1.42925
285.746	1.06621
285.964	2.67134
286.181	1.73463
286.398	2.72255
286.615	3.71518
286.832	3.67026
287.05	1.16571
287.267	2.52504
287.484	2.7174
287.701	3.9184
287.918	3.61365
288.135	3.69765
288.352	1.68018
288.569	1.9616
288.786	3.42007
289.003	2.33643
289.22	3.81168
289.437	2.49389
289.654	4.14012
289.871	4.17187
290.088	4.16825
290.305	3.16655
290.522	2.40421
290.739	3.14251
290.956	4.29652
291.173	5.13938
291.39	4.94741
291.607	3.30385
291.824	2.44851
292.04	1.59065
292.257	4.1802
292.474	4.44653
292.691	2.82965
292.908	1.47827
293.125	2.59814
293.341	1.33645
293.558	7.06527
293.775	2.68973
293.992	2.92411
294.208	1.28037
294.425	1.61304
294.642	2.57845
294.858	4.40125
295.075	1.03229
295.292	2.79178
295.508	3.2669
295.725	5.35727
295.942	2.39957
296.158	1.62318
296.375	2.89606
296.591	2.28175
296.808	2.34389
297.024	2.70526
297.241	3.10007
297.458	3.21605
297.674	0.25419
297.891	2.57256
298.107	1.91259
298.323	1.55217
298.54	3.8712
298.756	1.77298
298.973	0.93726
299.189	3.92973
299.406	1.71477
299.622	4.12871
299.838	3.8795
300.055	3.5753
300.271	0.82263
300.487	1.44212
300.704	1.67937
300.92	1.14423
301.136	5.48318
301.353	3.83537
301.569	2.5628
301.785	3.10895
302.001	3.76852
302.218	3.34402
302.434	3.05308
302.65	1.09541
302.866	2.15711
303.083	5.34615
303.299	4.92772
303.515	2.86434
303.731	2.89019
303.947	1.16341
304.163	1.77917
304.379	3.16409
304.595	3.35277
304.812	2.0788
305.028	1.76371
305.244	2.34881
305.46	3.53835
305.676	3.77317
305.892	4.5416
306.108	2.72987
306.324	2.3076
306.54	4.9933
306.756	3.74959
306.972	3.8225
307.187	2.48558
307.403	4.72235
307.619	1.96003
307.835	4.0158
308.051	4.75471
308.267	1.06117
308.483	4.00755
308.699	3.5477
308.914	2.82902
309.13	2.73761
309.346	0.74994
309.562	1.41912
309.778	0.89716
309.993	3.45878
310.209	2.58515
310.425	0.97153
310.641	2.24598
310.856	1.30688
311.072	1.23795
311.288	2.41122
311.503	2.88663
311.719	0.63334
311.935	0.40527
312.15	3.00336
312.366	2.74515
312.581	3.36164
312.797	2.78978
313.013	3.40662
313.228	2.27035
313.444	2.66524
313.659	1.98835
313.875	3.27056
314.09	2.56882
314.306	4.29706
314.521	3.67879
314.737	3.47059
314.952	3.26792
315.168	2.4913
315.383	3.35209
315.599	2.29759
315.814	2.23252
316.029	3.49095
316.245	1.15292
316.46	1.11063
316.675	4.31241
316.891	5.10986
317.106	6.2195
317.321	3.90971
317.537	3.43419
317.752	3.87819
317.967	3.90022
318.183	1.7843
318.398	2.51595
318.613	3.96462
318.828	4.53086
319.043	3.74183
319.259	2.29504
319.474	3.28945
319.689	4.17756
319.904	0.62544
320.119	3.92203
320.334	3.10819
320.549	2.6103
320.765	4.23691
320.98	2.91938
321.195	4.04832
321.41	2.64643
321.625	3.63619
321.84	5.15023
322.055	5.17192
322.27	1.79797
322.485	1.27418
322.7	3.08196
322.915	4.3697
323.13	1.74684
323.345	4.67162
323.56	3.19391
323.775	3.8939
323.989	3.2719
324.204	2.85303
324.419	3.84339
324.634	1.30135
324.849	2.68673
325.064	5.84183
325.279	4.35362
325.493	3.59398
325.708	4.06498
325.923	1.94786
326.138	1.84716
326.352	4.83538
326.567	3.73221
326.782	2.41611
326.997	2.0121
327.211	3.36852
327.426	3.44566
327.641	2.5102
327.855	1.16691
328.07	3.44403
328.285	5.03751
328.499	2.46443
328.714	3.5919
328.928	3.84201
329.143	3.26127
329.358	3.92983
329.572	4.15035
329.787	4.77802
330.001	5.94826
330.216	1.10543
330.43	4.9216
330.645	5.08613
330.859	3.79329
331.074	1.89239
331.288	3.30682
331.503	4.68729
331.717	1.53131
331.931	2.98514
332.146	3.16744
332.36	5.3671
332.575	3.46618
332.789	2.97751
333.003	3.06572
333.218	3.84239
333.432	2.62493
333.646	3.92546
333.86	4.5592
334.075	5.11298
334.289	2.67017
334.503	2.03166
334.717	3.64857
334.932	3.51911
335.146	4.6972
335.36	2.45673
335.574	4.01366
335.788	3.6401
336.003	4.54406
336.217	3.99928
336.431	3.55477
336.645	2.02163
336.859	1.48459
337.073	2.52716
337.287	3.18629
337.501	1.73011
337.715	3.31558
337.929	3.88021
338.143	1.63192
338.357	2.80782
338.571	1.88937
338.785	3.56146
338.999	2.51553
339.213	2.49759
339.427	1.04981
339.641	4.40401
339.855	2.68413
340.069	2.24636
340.283	4.3307
340.497	4.97021
340.711	3.61734
340.924	2.71579
341.138	1.63196
341.352	1.27021
341.566	3.18992
341.78	0.98976
341.993	1.91786
342.207	1.64659
342.421	3.28915
342.635	3.05423
342.848	2.1564
343.062	0.17047
343.276	2.09009
343.49	5.61505
343.703	2.12733
343.917	3.77217
344.131	3.87071
344.344	2.05662
344.558	2.2512
344.771	1.74683
344.985	4.37132
345.199	4.71125
345.412	3.10589
345.626	3.23038
345.839	0.9602
346.053	1.54261
346.266	1.69098
346.48	3.73394
346.693	3.14295
346.907	3.38331
347.12	1.83838
347.334	3.07886
347.547	3.16983
347.76	2.69272
347.974	4.16169
348.187	3.15179
348.401	2.45553
348.614	2.09824
348.827	2.8125
349.041	3.47232
349.254	0.96111
349.467	2.31856
349.681	1.44105
349.894	2.10372
350.107	4.25693
350.32	4.59052
350.534	0.95545
350.747	2.38857
350.96	1.83035
351.173	2.13944
351.386	2.5923
351.6	2.26938
351.813	2.18482
352.026	2.63951
352.239	1.39074
352.452	2.24717
352.665	3.60087
352.878	2.3689
353.092	5.39455
353.305	3.3989
353.518	3.02126
353.731	1.6912
353.944	4.19857
354.157	1.76543
354.37	1.91811
354.583	1.46545
354.796	1.28938
355.009	3.89667
355.222	2.62769
355.435	2.6896
355.647	4.02363
355.86	1.63947
356.073	2.56666
356.286	2.03685
356.499	3.61164
356.712	3.03749
356.925	3.09203
357.138	3.74932
357.35	1.54539
357.563	2.0513
357.776	2.80419
357.989	2.5342
358.201	3.15622
358.414	2.7717
358.627	4.08572
358.84	2.50139
359.052	1.47589
359.265	1.68148
359.478	3.6225
359.69	-0.06104
359.903	3.43485
360.116	3.6685
360.328	0.91324
360.541	3.57746
360.753	1.77387
360.966	2.19068
361.179	2.23306
361.391	2.01357
361.604	1.47791
361.816	2.00092
362.029	2.02562
362.241	1.68993
362.454	2.15295
362.666	1.66119
362.879	2.83872
363.091	2.28514
363.304	1.91199
363.516	2.53402
363.728	1.46346
363.941	2.94894
364.153	2.32128
364.366	0.63156
364.578	1.50948
364.79	3.00007
365.003	2.52224
365.215	2.12145
365.427	3.21321
365.639	3.72874
365.852	2.84413
366.064	4.6276
366.276	2.10523
366.488	3.01524
366.701	2.26948
366.913	2.28256
367.125	2.15915
367.337	1.96054
367.549	2.02012
367.762	2.48394
367.974	2.56946
368.186	2.16141
368.398	3.76914
368.61	3.03229
368.822	3.17485
369.034	2.42385
369.246	3.53213
369.458	5.27827
369.67	1.74091
369.882	4.50675
370.094	0.54442
370.306	4.09802
370.518	2.39528
370.73	1.82507
370.942	1.9132
371.154	2.56752
371.366	2.26085
371.578	3.18315
371.79	2.10791
372.002	3.68364
372.214	4.73463
372.425	2.7139
372.637	4.17599
372.849	2.96275
373.061	0.61441
373.273	3.31095
373.484	3.15751
373.696	3.79349
373.908	0.84004
374.12	3.79257
374.331	3.53973
374.543	2.09568
374.755	1.63886
374.967	2.89383
375.178	3.92601
375.39	2.85302
375.602	2.96343
375.813	1.5528
376.025	1.79529
376.236	3.09859
376.448	3.10655
376.66	2.77608
376.871	2.83746
377.083	4.0966
377.294	4.56967
377.506	2.63495
377.717	4.37252
377.929	3.33624
378.14	2.66922
378.352	3.80021
378.563	4.04696
378.775	4.56464
378.986	2.16407
379.197	3.47122
379.409	2.43386
379.62	3.77223
379.832	3.3409
380.043	2.96573
380.254	3.25679
380.466	2.07209
380.677	6.01012
380.888	5.26609
381.1	6.05329
381.311	5.93413
381.522	3.59637
381.733	6.358
381.945	3.17869
382.156	3.26325
382.367	3.16521
382.578	6.27185
382.789	6.29166
383.001	2.96584
383.212	5.00123
383.423	5.38582
383.634	4.55124
383.845	4.25522
384.056	3.15137
384.267	3.74468
384.478	3.68797
384.69	2.46018
384.901	4.26935
385.112	4.0021
385.323	5.47549
385.534	4.51125
385.745	4.37501
385.956	4.17966
386.167	2.91281
386.378	4.43745
386.588	3.37862
386.799	3.21091
387.01	2.82003
387.221	4.97767
387.432	4.41227
387.643	5.93263
387.854	3.80439
388.065	3.73282
388.275	4.14482
388.486	3.82546
388.697	4.47247
388.908	3.83309
389.119	5.36323
389.329	6.00756
389.54	4.25915
389.751	4.98324
389.962	5.58311
390.172	4.58548
390.383	4.29822
390.594	4.01687
390.804	4.00349
391.015	4.07189
391.226	4.92925
391.436	5.4573
391.647	5.33365
391.858	5.37432
392.068	3.44775
392.279	4.10182
392.489	5.20731
392.7	5.72063
392.91	4.39093
393.121	4.32265
393.331	5.61289
393.542	6.20466
393.752	6.03218
393.963	5.67124
394.173	5.80598
394.384	5.88985
394.594	5.54966
394.804	4.54102
395.015	5.27381
395.225	6.19111
395.436	4.89207
395.646	6.10065
395.856	5.23029
396.067	4.38688
396.277	6.78269
396.487	6.02017
396.697	6.36988
396.908	6.75032
397.118	6.3243
397.328	6.05249
397.538	6.81573
397.749	5.43072
397.959	7.0518
398.169	6.65203
398.379	4.87516
398.589	6.5615
398.8	6.63648
399.01	6.62887
399.22	5.99596
399.43	8.32765
399.64	6.47743
399.85	7.29598
400.06	6.86251
400.27	6.09885
400.48	6.48704
400.69	7.85143
400.9	6.40426
401.11	5.85404
401.32	7.59678
401.53	6.55668
401.74	8.2271
401.95	7.3805
402.16	6.68042
402.37	7.63911
402.58	6.75978
402.79	7.94785
403	8
403.209	6.68327
403.419	8.45691
403.629	6.90887
403.839	8.54762
404.049	8.51034
404.258	7.42545
404.468	7.26981
404.678	8.7347
404.888	8.89337
405.097	8.15038
405.307	7.88677
405.517	8.86557
405.727	8.96659
405.936	7.82971
406.146	8.44118
406.356	9.47738
406.565	8.38048
406.775	8.06733
406.984	8.22022
407.194	10.48558
407.404	8.61159
407.613	9.3025
407.823	9.45982
408.032	10.16445
408.242	9.61154
408.451	8.66775
408.661	8.85829
408.87	10.49377
409.08	8.32123
409.289	9.4266
409.499	9.24343
409.708	9.21105
409.918	7.49268
410.127	9.57151
410.336	10.75252
410.546	10.32607
410.755	9.27854
410.964	9.12067
411.174	8.7737
411.383	10.07364
411.592	9.77686
411.802	8.98971
412.011	10.39203
412.22	9.78149
412.429	10.74475
412.639	11.10489
412.848	11.00684
413.057	11.50731
413.266	10.81205
413.475	10.28448
413.685	10.79648
413.894	11.19875
414.103	11.09917
414.312	10.84153
414.521	10.03634
414.73	10.54976
414.939	12.23521
415.148	11.05707
415.357	10.97955
415.566	10.62706
415.776	10.72751
415.985	10.64306
416.194	11.85707
416.403	12.89869
416.611	10.25814
416.82	10.81973
417.029	11.67632
417.238	11.06928
417.447	10.90959
417.656	11.552
417.865	11.14966
418.074	11.55704
418.283	11.8117
418.492	12.72052
418.7	12.59332
418.909	13.57868
419.118	12.2914
419.327	12.60643
419.536	12.44382
419.744	12.38782
419.953	13.81716
420.162	14.1415
420.371	13.19728
420.579	14.20632
420.788	14.92931
420.997	15.48011
421.205	15.60656
421.414	15.34467
421.623	15.60721
421.831	14.92563
422.04	15.63163
422.249	14.42942
422.457	14.88848
422.666	13.99406
422.874	15.14132
423.083	15.24559
423.291	15.27222
423.5	15.53174
423.708	15.84224
423.917	16.49572
424.125	15.65314
424.334	15.75626
424.542	17.67379
424.751	16.86712
424.959	16.34342
425.167	16.61048
425.376	16.44477
425.584	14.98449
425.793	14.90013
426.001	13.53613
426.209	14.66747
426.418	13.57097
426.626	13.3282
426.834	13.43555
427.042	13.92511
427.251	13.33261
427.459	14.5639
427.667	13.86509
427.875	12.8426
428.084	13.37698
428.292	14.8138
428.5	14.59984
428.708	12.99462
428.916	13.19636
429.124	14.01623
429.333	13.84299
429.541	13.87175
429.749	14.17029
429.957	13.8529
430.165	16.08278
430.373	12.86113
430.581	14.03013
430.789	15.40622
430.997	13.82962
431.205	13.48729
431.413	14.54707
431.621	13.92204
431.829	14.99002
432.037	14.1152
432.245	14.71916
432.453	14.98059
432.661	14.34308
432.869	15.97475
433.076	13.97218
433.284	14.48837
433.492	15.35428
433.7	15.72355
433.908	14.73464
434.116	14.99991
434.323	15.16257
434.531	14.85616
434.739	15.42312
434.947	15.39779
435.154	15.82005
435.362	14.89846
435.57	14.79962
435.778	14.38443
435.985	15.26153
436.193	14.51974
436.401	15.93995
436.608	14.93186
436.816	14.81093
437.023	16.30707
437.231	16.72053
437.439	15.27018
437.646	16.04032
437.854	15.52473
438.061	15.94229
438.269	15.05064
438.476	16.14418
438.684	15.52072
438.891	15.22312
439.099	15.18565
439.306	14.68102
439.514	14.9573
439.721	16.15687
439.929	15.09465
440.136	15.98634
440.343	16.06909
440.551	15.87967
440.758	17.55231
440.965	16.43625
441.173	15.94978
441.38	15.62689
441.587	16.27632
441.795	15.7661
442.002	16.00182
442.209	16.34965
442.416	16.46132
442.624	16.425
442.831	16.32324
443.038	15.73874
443.245	15.27403
443.452	15.70609
443.66	16.32459
443.867	15.6403
444.074	15.48137
444.281	15.45932
444.488	15.75348
444.695	16.11129
444.902	15.76083
445.109	16.70326
445.316	16.08154
445.523	16.65761
445.73	16.65477
445.937	18.00443
446.144	18.67062
446.351	19.16257
446.558	17.86986
446.765	20.08527
446.972	19.11619
447.179	18.81783
447.386	19.22658
447.593	17.18273
447.8	17.96771
448.007	16.66777
448.214	16.58244
448.42	16.21572
448.627	17.66013
448.834	16.5492
449.041	16.61034
449.248	16.54786
449.454	17.25906
449.661	17.91512
449.868	16.26176
450.075	16.38972
450.281	15.31544
450.488	15.96505
450.695	15.83036
450.901	15.94682
451.108	16.11731
451.315	17.39875
451.521	16.10976
451.728	17.51237
451.935	16.05562
452.141	16.46327
452.348	16.37173
452.554	16.26445
452.761	16.00255
452.967	17.91089
453.174	16.82428
453.38	17.0682
453.587	15.86486
453.793	16.84159
454	17.24713
454.206	18.33638
454.413	17.4178
454.619	17.4266
454.825	16.42702
455.032	17.30753
455.238	17.48556
455.445	15.77011
455.651	16.7482
455.857	15.49741
456.064	16.71059
456.27	16.48193
456.476	16.52685
456.682	15.93061
456.889	17.28219
457.095	17.52503
457.301	18.5485
457.507	16.91618
457.714	17.05102
457.92	17.19874
458.126	16.57495
458.332	16.94015
458.538	16.49224
458.744	16.93786
458.951	17.06014
459.157	18.42986
459.363	17.74692
459.569	18.30401
459.775	19.01409
459.981	18.9005
460.187	19.48645
460.393	19.48188
460.599	19.23897
460.805	18.03404
461.011	17.61621
461.217	18.72507
461.423	18.80112
461.629	17.77581
461.835	18.35535
462.041	17.67508
462.247	19.06095
462.453	17.51601
462.658	17.38313
462.864	18.14547
463.07	17.88558
463.276	17.73085
463.482	17.48201
463.688	18.96597
463.893	16.91674
464.099	17.25017
464.305	18.88669
464.511	17.08973
464.716	17.30748
464.922	18.39517
465.128	17.01415
465.333	19.03959
465.539	18.14973
465.745	17.79904
465.95	17.63174
466.156	20.19695
466.362	18.71951
466.567	17.88995
466.773	17.73512
466.978	18.96506
467.184	17.19021
467.389	16.44786
467.595	18.35758
467.8	17.3598
468.006	19.13678
468.211	19.04352
468.417	17.0993
468.622	18.34435
468.828	18.44194
469.033	18.288
469.239	20.44369
469.444	17.46429
469.649	18.51365
469.855	17.859
470.06	18.0258
470.266	17.38044
470.471	18.7874
470.676	18.35202
470.881	16.70083
471.087	19.55208
471.292	19.71798
471.497	17.32161
471.703	18.15756
471.908	17.69278
472.113	18.34581
472.318	18.8037
472.523	17.62381
472.729	18.73732
472.934	18.8008
473.139	17.94523
473.344	18.85814
473.549	19.34441
473.754	17.75865
473.959	20.33948
474.164	18.23713
474.369	18.26002
474.575	19.05693
474.78	18.48666
474.985	18.41144
475.19	16.87135
475.395	18.03315
475.6	18.49355
475.804	19.70816
476.009	18.70248
476.214	18.2631
476.419	17.94736
476.624	17.47858
476.829	18.09523
477.034	19.15714
477.239	18.27634
477.444	19.02903
477.648	19.18968
477.853	19.22513
478.058	18.76355
478.263	18.26201
478.468	18.32042
478.672	18.41159
478.877	20.23035
479.082	20.46546
479.287	19.54762
479.491	18.89344
479.696	18.41325
479.901	19.67155
480.105	19.61247
480.31	18.47099
480.515	19.14172
480.719	20.69703
480.924	18.8009
481.128	18.25662
481.333	19.4013
481.538	19.32826
481.742	18.83944
481.947	20.03887
482.151	21.77587
482.356	23.54925
482.56	27.61824
482.765	31.17071
482.969	36.70108
483.174	41.20047
483.378	47.36934
483.582	49.54598
483.787	52.53544
483.991	53.30143
484.196	53.39867
484.4	52.35692
484.604	51.89979
484.809	47.23232
485.013	44.13291
485.217	39.97083
485.422	35.60863
485.626	32.36869
485.83	30.79428
486.034	29.88486
486.239	30.78077
486.443	31.64768
486.647	32.85821
486.851	35.05227
487.055	37.46437
487.26	37.92222
487.464	39.75236
487.668	39.097
487.872	40.05607
488.076	39.96092
488.28	38.16613
488.484	35.64891
488.688	34.36155
488.892	32.20964
489.096	29.8311
489.3	27.61251
489.504	25.79874
489.708	24.57652
489.912	23.99039
490.116	23.56257
490.32	23.70818
490.524	25.71416
490.728	27.41802
490.932	29.21607
491.136	31.2706
491.34	33.01572
491.544	33.65698
491.748	33.71194
491.951	33.64415
492.155	32.87398
492.359	31.4328
492.563	28.37343
492.767	26.80517
492.97	23.75511
493.174	21.24594
493.378	20.38541
493.582	20.07018
493.785	20.36091
493.989	20.72812
494.193	20.51413
494.396	20.05528
494.6	20.61514
494.804	19.92342
495.007	19.52551
495.211	19.88406
495.414	19.60875
495.618	20.12953
495.822	20.96569
496.025	20.02602
496.229	20.40494
496.432	19.71239
496.636	20.18859
496.839	20.19957
497.043	20.94081
497.246	20.52267
497.45	19.99992
497.653	20.43312
497.856	20.432
498.06	19.9569
498.263	20.19744
498.467	20.23755
498.67	21.02691
498.873	20.60898
499.077	20.24746
499.28	20.38059
499.483	20.53674
499.686	20.97192
499.89	20.54128
500.093	20.92765
500.296	19.84471
500.499	21.72673
500.703	20.22402
500.906	20.74396
501.109	21.74363
501.312	20.5417
501.515	20.33947
501.719	20.78385
501.922	20.9712
502.125	20.47615
502.328	20.52058
502.531	19.722
502.734	20.48858
502.937	19.33618
503.14	20.51114
503.343	19.93727
503.546	20.27455
503.749	19.99771
503.952	20.87835
504.155	20.11155
504.358	20.74056
504.561	20.76388
504.764	19.67828
504.967	21.00317
505.17	20.55809
505.373	21.66405
505.576	20.5786
505.778	21.27232
505.981	19.84752
506.184	21.62345
506.387	19.43753
506.59	22.11699
506.793	21.32224
506.995	21.13901
507.198	19.29023
507.401	21.23006
507.604	21.10017
507.806	20.02554
508.009	20.30937
508.212	21.3883
508.414	20.66833
508.617	20.57391
508.82	21.05696
509.022	21.86711
509.225	21.22165
509.427	19.92141
509.63	21.76739
509.833	20.8217
510.035	20.58333
510.238	19.97905
510.44	21.853
510.643	19.80031
510.845	22.47119
511.048	21.53606
511.25	20.51297
511.453	20.88026
511.655	21.41049
511.858	20.77748
512.06	21.74855
512.262	21.08827
512.465	21.8494
512.667	21.04664
512.869	20.24811
513.072	21.50224
513.274	21.83261
513.476	21.8926
513.679	22.00356
513.881	20.67142
514.083	22.70434
514.286	20.76057
514.488	20.70735
514.69	20.4159
514.892	20.08988
515.094	21.81731
515.297	20.77905
515.499	21.66931
515.701	20.5448
515.903	22.38489
516.105	22.73099
516.307	21.73654
516.509	19.93889
516.711	20.42629
516.913	21.18643
517.116	21.54796
517.318	20.96396
517.52	22.14691
517.722	21.7228
517.924	20.57728
518.126	21.73121
518.328	21.19962
518.529	21.87009
518.731	22.75886
518.933	21.23395
519.135	21.65772
519.337	22.63891
519.539	22.15556
519.741	20.57315
519.943	21.73504
520.145	21.69941
520.346	22.57692
520.548	21.54424
520.75	22.21333
520.952	21.57603
521.153	22.2481
521.355	22.05524
521.557	21.06254
521.759	21.91799
521.96	21.66799
522.162	20.86101
522.364	22.61012
522.565	21.23125
522.767	22.32366
522.969	22.35743
523.17	21.9367
523.372	21.84913
523.573	21.41019
523.775	21.52553
523.977	20.73647
524.178	23.10799
524.38	21.32083
524.581	22.18342
524.783	21.49724
524.984	22.19841
525.186	21.73219
525.387	22.23287
525.589	21.9124
525.79	21.75814
525.991	21.66479
526.193	22.58218
526.394	21.82748
526.596	23.0121
526.797	23.76117
526.998	23.55973
527.2	24.96631
527.401	28.80715
527.602	31.37825
527.803	36.19357
528.005	39.08038
528.206	41.65671
528.407	44.30504
528.608	44.57418
528.81	45.01635
529.011	44.1148
529.212	44.55058
529.413	41.52726
529.614	38.51297
529.815	35.88559
530.017	32.53879
530.218	28.81292
530.419	26.17403
530.62	24.62885
530.821	23.45031
531.022	21.85697
531.223	22.98425
531.424	22.94061
531.625	22.82286
531.826	22.54512
532.027	23.7272
532.228	25.96794
532.429	27.03202
532.63	28.34853
532.831	29.98687
533.032	30.26231
533.233	31.58016
533.433	31.06464
533.634	31.21103
533.835	29.84431
534.036	28.333
534.237	27.05391
534.438	24.99955
534.638	22.71412
534.839	22.85199
535.04	23.30403
535.241	22.67236
535.441	24.15746
535.642	23.06565
535.843	22.04088
536.043	22.28052
536.244	22.1877
536.445	22.60545
536.645	23.33929
536.846	23.1734
537.047	23.62154
537.247	22.34248
537.448	22.7603
537.648	22.98024
537.849	22.88763
538.049	22.96278
538.25	23.35906
538.451	23.7297
538.651	22.53212
538.851	23.17993
539.052	23.97907
539.252	23.45866
539.453	22.51912
539.653	22.96383
539.854	22.56702
540.054	22.68197
540.254	24.39782
540.455	26.84358
540.655	28.20094
540.855	31.29842
541.056	33.42703
541.256	33.76069
541.456	34.98944
541.657	34.40239
541.857	34.86826
542.057	32.73833
542.257	30.99131
542.458	30.65025
542.658	28.92801
542.858	26.12338
543.058	25.45408
543.258	24.16809
543.458	22.69839
543.659	22.69477
543.859	23.85623
544.059	23.79055
544.259	23.02463
544.459	23.94235
544.659	22.70128
544.859	23.40052
545.059	22.84932
545.259	23.89108
545.459	23.71043
545.659	23.80221
545.859	23.1676
546.059	23.09518
546.259	22.36563
546.459	22.21228
546.659	22.36918
546.859	23.93983
547.059	23.44225
547.258	23.53974
547.458	23.46644
547.658	22.9484
547.858	22.58617
548.058	23.73531
548.258	23.32526
548.457	22.67668
548.657	25.35072
548.857	23.15356
549.057	23.92292
549.256	23.97162
549.456	22.73282
549.656	21.21612
549.855	24.75662
550.055	22.9299
550.255	24.64531
550.454	23.67794
550.654	23.33127
550.853	24.63875
551.053	23.82279
551.253	23.35656
551.452	23.55616
551.652	22.09095
551.851	21.90686
552.051	22.74602
552.25	22.62557
552.45	22.62867
552.649	23.05139
552.849	22.56362
553.048	22.87221
553.248	23.82089
553.447	22.32641
553.646	23.99944
553.846	24.92106
554.045	24.24891
554.244	22.09525
554.444	24.71416
554.643	22.51948
554.842	24.36779
555.042	25.07848
555.241	22.47402
555.44	21.7269
555.64	23.93252
555.839	25.20507
556.038	23.71028
556.237	22.50962
556.436	23.55021
556.636	23.38268
556.835	22.62824
557.034	24.70413
557.233	22.80593
557.432	21.8237
557.631	24.16215
557.83	22.62121
558.029	22.90838
558.228	22.75503
558.427	22.32208
558.626	23.60927
558.825	22.40321
559.024	23.27877
559.223	25.10632
559.422	23.06764
559.621	23.78754
559.82	20.59479
560.019	23.33958
560.218	22.88345
560.417	20.93189
560.616	22.6856
560.815	26.43202
561.014	22.07837
561.212	25.2467
561.411	23.20167
561.61	21.95852
561.809	23.22713
562.008	24.77944
562.206	23.17557
562.405	24.24762
562.604	23.22266
562.803	23.71051
563.001	23.48143
563.2	21.97891
563.399	24.12099
563.597	22.0954
563.796	23.32035
563.995	22.41935
564.193	24.48965
564.392	23.61728
564.59	25.52048
564.789	21.64784
564.988	22.79911
565.186	23.46423
565.385	23.02107
565.583	23.24922
565.782	23.626
565.98	23.28396
566.179	23.40509
566.377	22.99546
566.575	23.18193
566.774	25.00144
566.972	24.68755
567.171	26.01461
567.369	24.89866
567.567	24.32606
567.766	24.30484
567.964	22.00834
568.162	24.24072
568.361	24.85629
568.559	23.69183
568.757	23.82653
568.956	23.87589
569.154	23.61578
569.352	24.0816
569.55	23.72944
569.748	23.41203
569.947	23.20058
570.145	22.69265
570.343	22.88854
570.541	24.55814
570.739	22.30165
570.937	23.66365
571.135	23.8989
571.333	25.52169
571.532	25.09715
571.73	23.88499
571.928	25.18988
572.126	24.10225
572.324	23.28774
572.522	25.26567
572.72	27.00684
572.918	24.04758
573.116	24.72848
573.313	24.06331
573.511	24.1557
573.709	23.05175
573.907	25.1944
574.105	23.67476
574.303	22.23214
574.501	22.46859
574.699	24.30471
574.896	24.60323
575.094	24.65341
575.292	22.64102
575.49	24.96974
575.688	23.89066
575.885	25.32173
576.083	26.38229
576.281	24.89767
576.478	23.03259
576.676	24.82518
576.874	22.42752
577.071	23.69972
577.269	26.79892
577.467	24.37656
577.664	24.23125
577.862	25.89216
578.059	23.2492
578.257	25.33799
578.455	23.66027
578.652	24.4885
578.85	21.53196
579.047	24.19571
579.245	24.01752
579.442	23.87661
579.64	24.13241
579.837	22.27541
580.034	27.31055
580.232	23.85798
580.429	22.37521
580.627	24.43274
580.824	25.93629
581.021	24.63274
581.219	22.97397
581.416	22.48413
581.613	25.88691
581.811	25.93232
582.008	23.10034
582.205	24.8858
582.402	24.24644
582.6	25.79123
582.797	23.59192
582.994	24.27249
583.191	24.64782
583.388	24.25735
583.586	24.93296
583.783	25.45731
583.98	23.4702
584.177	23.90151
584.374	20.48506
584.571	23.56757
584.768	23.84877
584.965	23.52057
585.162	24.68436
585.359	26.0783
585.556	24.21476
585.753	24.72814
585.95	22.2242
586.147	23.27126
586.344	25.00744
586.541	23.86225
586.738	22.40323
586.935	23.69452
587.132	23.29715
587.329	25.41069
587.526	24.26687
587.722	30.80139
587.919	22.5555
588.116	24.9936
588.313	26.2311
588.51	27.02711
588.706	23.55436
588.903	25.27955
589.1	25.42611
589.297	27.47911
589.493	24.62463
589.69	25.03124
589.887	23.79637
590.083	23.53665
590.28	23.43439
590.477	25.46516
590.673	25.24968
590.87	26.18664
591.067	24.08028
591.263	25.07735
591.46	24.51166
591.656	23.97394
591.853	26.75229
592.049	23.2872
592.246	23.90998
592.442	26.25229
592.639	25.74084
592.835	23.57721
593.032	25.46047
593.228	22.53981
593.425	22.84413
593.621	22.42394
593.817	24.94081
594.014	23.27789
594.21	24.42214
594.406	25.6413
594.603	25.2081
594.799	23.61011
594.995	22.12323
595.192	25.94263
595.388	23.99045
595.584	24.32536
595.78	22.44764
595.977	27.21556
596.173	26.4632
596.369	23.7927
596.565	23.19953
596.761	22.89957
596.957	26.23132
597.154	23.74207
597.35	24.22487
597.546	24.12974
597.742	26.15016
597.938	25.17438
598.134	24.18119
598.33	25.57702
598.526	26.843
598.722	24.97326
598.918	27.77301
599.114	25.63438
599.31	23.43526
599.506	24.89137
599.702	23.60922
599.898	24.43871
600.094	25.50982
600.29	25.93028
600.485	26.15985
600.681	23.83184
600.877	27.43589
601.073	24.31459
601.269	27.59943
601.465	26.49047
601.66	22.90563
601.856	22.14112
602.052	27.04103
602.248	24.30419
602.443	22.50513
602.639	23.3879
602.835	23.81831
603.03	23.55813
603.226	26.06202
603.422	23.72534
603.617	24.43215
603.813	24.53133
604.009	24.599
604.204	26.49152
604.4	23.27599
604.595	26.16256
604.791	23.7039
604.986	25.66883
605.182	24.07041
605.377	25.15891
605.573	24.26593
605.768	25.70859
605.964	26.16312
606.159	26.30624
606.355	26.79007
606.55	24.73636
606.746	27.16017
606.941	24.99818
607.136	27.7436
607.332	29.55144
607.527	23.38017
607.722	25.58256
607.918	25.10861
608.113	23.98329
608.308	25.91419
608.503	25.53084
608.699	25.29294
608.894	25.66704
609.089	23.99299
609.284	25.14261
609.479	24.70534
609.675	25.8691
609.87	24.62812
610.065	26.72826
610.26	26.35777
610.455	26.22231
610.65	25.51917
610.845	25.46155
611.04	27.0356
611.235	25.15209
611.43	24.91169
611.625	23.45756
611.82	27.49162
612.015	24.41546
612.21	27.38347
612.405	23.18648
612.6	28.00816
612.795	26.83468
612.99	26.04654
613.185	23.34269
613.38	24.32625
613.575	25.11404
613.77	29.38844
613.965	22.07003
614.159	23.48876
614.354	27.6065
614.549	26.73812
614.744	26.44751
614.938	23.46977
615.133	23.23818
615.328	27.47739
615.523	26.93455
615.717	30.1379
615.912	24.27903
616.107	25.81362
616.301	24.69929
616.496	24.64421
616.691	28.22624
616.885	26.27154
617.08	30.60574
617.274	26.94737
617.469	28.71774
617.664	26.83871
617.858	24.43212
618.053	26.53933
618.247	25.09075
618.442	21.57553
618.636	28.23506
618.831	25.18414
619.025	24.15921
619.219	30.58948
619.414	20.09522
619.608	25.66468
619.803	24.54927
619.997	30.21022
620.191	27.0769
620.386	26.37731
620.58	25.47228
620.774	22.45171
620.969	22.79587
621.163	25.83546
621.357	24.31942
621.551	25.12349
621.746	25.3771
621.94	25.10106
622.134	32.00217
622.328	29.4421
622.522	22.86925
622.716	27.20076
622.911	28.01659
623.105	27.55136
623.299	26.5584
623.493	32.21473
623.687	23.87763
623.881	24.95309
624.075	26.82213
624.269	28.29571
624.463	22.28997
624.657	22.38068
624.851	27.43647
625.045	27.12957
625.239	27.41148
625.433	25.46404
625.627	28.0879
625.821	24.52569
626.015	24.27729
626.209	26.53014
626.403	24.08319
626.596	26.93993
626.79	27.45454
626.984	23.83491
627.178	27.12814
627.372	27.05994
627.565	27.45051
627.759	23.60887
627.953	24.6354
628.147	27.45571
628.34	27.35959
628.534	29.83704
628.728	24.95526
628.921	27.33884
629.115	26.45668
629.309	27.4537
629.502	27.81472
629.696	25.57528
629.89	25.91181
630.083	26.67544
630.277	26.74115
630.47	29.47583
630.664	25.22968
630.857	22.81805
631.051	28.33242
631.244	28.71946
631.438	27.66821
631.631	24.00887
631.825	28.8477
632.018	27.51703
632.212	29.98186
632.405	27.82739
632.598	25.00028
632.792	26.54376
632.985	21.56192
633.178	25.85857
633.372	25.70113
633.565	26.21165
633.758	28.95551
633.952	24.14842
634.145	24.39277
634.338	25.56489
634.531	25.24885
634.724	25.37252
634.918	26.02005
635.111	25.73107
635.304	25.10482
635.497	31.27635
635.69	27.23805
635.883	28.67131
636.077	24.22223
636.27	27.20366
636.463	26.60683
636.656	26.8488
636.849	25.60567
637.042	28.3515
637.235	29.70473
637.428	28.55413
637.621	28.30068
637.814	28.66635
638.007	30.28757
638.2	29.15575
638.393	30.78153
638.586	23.98901
638.778	25.36392
638.971	26.58655
639.164	29.80439
639.357	26.62464
639.55	30.28953
639.743	28.73906
639.935	27.53101
640.128	31.0828
640.321	28.06888
640.514	26.35603
640.707	32.33734
640.899	28.27087
641.092	23.35841
641.285	45.8302
641.477	22.03016
641.67	33.12364
641.863	31.19716
642.055	27.48466
642.248	26.0607
642.441	25.74179
642.633	28.03765
642.826	28.86312
643.018	30.54784
643.211	31.75848
643.403	31.44958
643.596	32.26745
643.788	31.51294
643.981	25.60124
644.173	29.81771
644.366	26.57269
644.558	21.95639
644.751	29.76235
644.943	23.21236
645.135	29.78061
645.328	31.0356
645.52	27.80349
645.712	29.97204
645.905	34.43171
646.097	23.84235
646.289	27.57809
646.482	33.06385
646.674	25.18629
646.866	31.06783
647.058	28.91773
647.251	25.4485
647.443	25.75178
647.635	26.57722
647.827	24.30723
648.019	25.27865
648.211	26.97609
648.404	27.19868
648.596	31.78575
648.788	28.24291
648.98	28.15725
649.172	28.65501
649.364	28.7928
649.556	22.5445
649.748	35.80244
649.94	25.47143
650.132	29.53623
650.324	25.44062
650.516	26.19782
650.708	31.64471
650.9	24.69866
651.092	26.22624
651.284	24.95878
651.476	24.58613
651.667	29.86541
651.859	30.58872
652.051	27.50422
652.243	27.15449
652.435	26.30334
652.627	29.16355
652.818	29.20193
653.01	23.64118
653.202	25.03142
653.394	26.60462
653.585	29.32776
653.777	40.36596
653.969	31.55784
654.16	31.27967
654.352	25.46173
654.544	26.92709
654.735	31.75262
654.927	29.01688
655.118	32.43716
655.31	29.26613
655.502	31.66117
655.693	27.41215
655.885	30.38054
656.076	31.25354
656.268	28.68006
656.459	33.55762
656.651	31.63527
656.842	27.33904
657.034	26.46156
657.225	30.51012
657.416	31.79597
657.608	31.95615
657.799	28.56911
657.99	32.75825
658.182	27.25153
658.373	26.97086
658.564	31.05185
658.756	28.71411
658.947	28.43685
659.138	25.87545
659.33	27.78903
659.521	26.92191
659.712	28.763
659.903	29.08306
660.094	28.23384
660.286	25.08118
660.477	34.04244
660.668	31.64056
660.859	28.72592
661.05	24.93225
661.241	31.39636
661.432	30.69608
661.623	27.48676
661.814	27.30876
662.006	24.01402
662.197	28.54738
662.388	32.63239
662.579	29.94515
662.77	31.966
662.96	37.84311
663.151	31.70153
663.342	24.49337
663.533	31.66156
663.724	28.51397
663.915	34.47111
664.106	28.41844
664.297	34.38142
664.488	32.37647
664.678	27.04827
664.869	31.16728
665.06	31.83375
665.251	28.68992
665.442	31.48774
665.632	25.38785
665.823	35.62128
666.014	20.30641
666.204	32.11082
666.395	33.71351
666.586	37.26307
666.776	30.85867
666.967	34.49872
667.158	30.40578
667.348	33.11471
667.539	25.79763
667.729	31.98695
667.92	27.12372
668.111	32.79693
668.301	31.01958
668.492	29.26481
668.682	29.50766
668.873	29.85666
669.063	25.7208
669.253	31.37576
669.444	32.51586
669.634	29.06733
669.825	36.7989
670.015	33.47113
670.206	26.78801
670.396	37.40972
670.586	29.87272
670.777	30.2756
670.967	23.18361
671.157	28.32973
671.347	27.75394
671.538	35.36026
671.728	31.58927
671.918	37.01189
672.108	33.11451
672.299	30.32557
672.489	32.33275
672.679	28.53801
672.869	31.76247
673.059	38.57973
673.249	30.93749
673.44	26.01488
673.63	31.048
673.82	34.18954
674.01	27.80379
674.2	31.55892
674.39	41.19131
674.58	34.23414
674.77	30.45187
674.96	29.78329
675.15	45.98813
675.34	36.05823
675.53	30.93504
675.72	30.88215
675.91	25.561
676.099	37.27595
676.289	39.87122
676.479	34.24873
676.669	28.45085
676.859	32.72393
677.049	27.98482
677.238	30.37206
677.428	38.01415
677.618	32.92315
677.808	34.89517
677.997	33.23926
678.187	26.75767
678.377	32.30534
678.567	29.94395
678.756	28.69373
678.946	30.93363
679.136	26.49074
679.325	29.10989
679.515	27.89088
679.704	27.77556
679.894	34.07413
680.084	32.18474
680.273	34.9861
680.463	29.53513
680.652	28.98846
680.842	31.38954
681.031	34.9376
681.221	29.74771
681.41	34.24622
681.6	31.03617
681.789	35.23577
681.978	36.54798
682.168	32.70466
682.357	32.00876
682.547	35.00619
682.736	32.08083
682.925	35.93572
683.115	35.50921
683.304	35.23799
683.493	33.99697
683.682	33.22252
683.872	34.1243
684.061	36.49162
684.25	34.93905
684.439	40.38634
684.629	35.04986
684.818	46.82823
685.007	32.90439
685.196	31.82061
685.385	39.64474
685.574	34.68364
685.763	35.32483
685.952	34.05275
686.142	28.07977
686.331	38.09944
686.52	26.20386
686.709	40.2104
686.898	40.17715
687.087	35.87055
687.276	41.642
687.465	37.7891
687.654	32.71865
687.842	40.15635
688.031	29.72877
688.22	40.20299
688.409	35.0022
688.598	35.2708
688.787	45.59653
688.976	34.88827
689.165	42.5661
689.353	31.25424
689.542	36.82618
689.731	38.189
689.92	42.67816
690.108	37.66061
690.297	32.9749
690.486	35.44761
690.675	38.25353
690.863	43.18821
691.052	42.19541
691.241	36.21364
691.429	35.89607
691.618	42.52276
691.806	30.29367
691.995	33.5069
692.184	35.6788
692.372	34.32364
692.561	37.70853
692.749	36.64762
692.938	47.0754
693.126	38.20069
693.315	35.11009
693.503	38.16228
693.692	38.2901
693.88	41.68897
694.068	45.38794
694.257	35.59329
694.445	38.63465
694.634	26.85849
694.822	40.64231
695.01	40.75084
695.199	43.67218
695.387	43.31571
695.575	42.1968
695.763	36.59797
695.952	33.75349
696.14	31.37404
696.328	33.91042
696.516	37.68008
696.705	38.14709
696.893	36.6293
697.081	28.7155
697.269	39.81216
697.457	31.12989
697.645	31.72072
697.833	39.08416
698.021	32.12259
698.21	33.71535
698.398	34.32233
698.586	30.59073
698.774	31.08871
698.962	34.91784
699.15	32.2784
699.338	29.82511
699.526	37.44419
699.714	33.34128
699.901	33.73285
700.089	40.42104
700.277	33.58859
700.465	36.34827
700.653	39.42209
700.841	38.6947
701.029	33.94945
701.217	42.60992
701.404	38.22056
701.592	45.78586
701.78	48.39234
701.968	37.22447
702.155	36.38157
702.343	29.82926
702.531	43.80038
702.718	40.02857
702.906	36.32978
703.094	34.19644
703.281	46.23363
703.469	39.09978
703.657	43.7143
703.844	55.45937
704.032	46.97797
704.219	35.50648
704.407	40.83428
704.595	46.08332
704.782	39.75039
704.97	36.04474
705.157	36.86994
705.345	47.78131
705.532	56.54137
705.719	41.46647
705.907	47.42086
706.094	39.7463
706.282	47.58918
706.469	36.41061
706.656	38.22852
706.844	37.63716
707.031	45.47971
707.218	41.48491
707.406	49.97225
707.593	44.09932
707.78	43.19527
707.968	39.93262
708.155	35.86174
708.342	44.51264
708.529	42.66187
708.716	40.58994
708.904	50.05729
709.091	44.9599
709.278	33.41563
709.465	54.18252
709.652	50.0253
709.839	49.19306
710.026	42.31062
710.213	31.61926
710.4	43.37941
710.587	45.66784
710.774	47.8766
710.961	45.45539
711.148	41.74691
711.335	46.09096
711.522	38.63692
711.709	43.89022
711.896	54.23101
712.083	47.91789
712.27	36.80515
712.457	44.0498
712.644	33.60327
712.831	56.26605
713.017	41.89772
713.204	45.81871
713.391	38.83364
713.578	49.36275
713.765	52.39433
713.951	46.69438
714.138	61.56593
714.325	47.54492
714.512	43.61165
714.698	34.76224
714.885	53.87152
715.072	43.8849
715.258	43.26862
715.445	39.38458
715.631	51.73981
715.818	29.17112
716.005	39.0155
716.191	47.87952
716.378	40.34138
716.564	50.49599
716.751	39.05088
716.937	40.5816
717.124	52.6215
717.31	38.47717
717.497	55.82698
717.683	40.54264
717.869	62.18685
718.056	40.74669
718.242	49.67392
718.429	43.65847
718.615	37.63891
718.801	46.31494
718.988	50.86774
719.174	49.07454
719.36	45.32482
719.547	52.43506
719.733	47.01122
719.919	48.29401
720.105	53.88464
720.291	45.22373
720.478	47.64027
720.664	46.61676
720.85	42.50995
721.036	66.02042
721.222	57.23556
721.408	46.34162
721.595	59.35865
721.781	57.18463
721.967	53.99231
722.153	60.21395
722.339	50.84474
722.525	50.80759
722.711	39.72183
722.897	36.21658
723.083	45.05768
723.269	53.9293
723.455	67.6391
723.641	74.89105
723.827	48.9892
724.012	50.32477
724.198	46.33815
724.384	56.83974
724.57	52.36887
724.756	34.08539
724.942	33.5827
725.127	56.10566
725.313	57.00493
725.499	57.68796
725.685	62.52087
725.87	48.93332
726.056	40.16027
726.242	56.32036
726.428	37.24265
726.613	56.59865
726.799	43.96997
726.985	37.27733
727.17	36.50885
727.356	62.88242
727.541	37.61014
727.727	45.52976
727.913	52.72127
728.098	43.17024
728.284	51.56153
728.469	39.26611
728.655	42.53212
728.84	53.50993
729.026	52.578
729.211	53.06622
729.397	51.60099
729.582	53.77403
729.767	49.53582
729.953	52.16191
730.138	55.52388
730.323	30.39946
730.509	38.85435
730.694	62.05973
730.879	52.65541
731.065	49.6878
731.25	68.27646
731.435	54.30002
731.621	36.6111
731.806	42.9455
731.991	50.97246
732.176	37.89143
732.361	59.5376
732.547	52.40348
732.732	36.3239
732.917	67.24515
733.102	41.04313
733.287	40.96634
733.472	48.46412
733.657	50.23957
733.842	37.37532
734.027	47.05623
734.212	48.28667
734.397	42.87768
734.582	52.09048
734.767	59.33984
734.952	62.63549
735.137	32.38272
735.322	62.864
735.507	53.38685
735.692	51.74785
735.877	70.46933
736.062	69.38317
736.247	53.2329
736.431	49.2258
736.616	59.73311
736.801	52.04374
736.986	49.0036
737.171	44.69507
737.355	38.20733
737.54	62.21923
737.725	51.83589
737.909	76.50833
738.094	45.783
738.279	59.04988
738.463	48.60565
738.648	59.62746
738.833	55.15357
739.017	69.7235
739.202	47.99329
739.386	48.12179
739.571	43.37416
739.756	56.60284
739.94	51.18032
740.125	57.95114
740.309	46.37915
740.494	56.26776
740.678	52.43378
740.863	56.45166
741.047	52.36042
741.231	63.47673
741.416	44.10123
741.6	66.25927
741.785	44.02339
741.969	61.49505
742.153	63.7596
742.338	34.10004
742.522	50.38318
742.706	62.06069
742.89	37.21628
743.075	55.0081
743.259	67.20563
743.443	62.10151
743.627	68.34168
743.812	76.90173
743.996	26.19422
744.18	52.68938
744.364	49.23621
744.548	80.18179
744.732	51.73506
744.916	61.74429
745.1	58.60654
745.285	50.03147
745.469	60.8122
745.653	73.84283
745.837	40.48447
746.021	80.3805
746.205	65.56063
746.389	57.70153
746.573	51.96931
746.757	69.74237
746.94	51.40379
747.124	66.18646
747.308	43.45402
747.492	65.37629
747.676	48.33575
747.86	82.32489
748.044	50.96218
748.227	36.15917
748.411	98.45118
748.595	58.01359
748.779	46.61864
748.963	58.02408
749.146	57.38249
749.33	44.94425
749.514	43.11153
749.697	72.30256
749.881	51.51611
750.065	41.94591
750.248	53.95738
750.432	79.82755
750.616	53.74372
750.799	40.38476
750.983	78.3767
751.166	84.11075
751.35	38.99568
751.533	60.481
751.717	70.239
751.9	70.82208
752.084	49.7544
752.267	46.06242
752.451	49.52813
752.634	59.53466
752.818	64.52404
753.001	65.96411
753.184	68.87772
753.368	61.10284
753.551	20.40663
753.734	46.92065
753.918	81.73138
754.101	48.25518
754.284	61.1443
754.467	50.2289
754.651	47.90311
754.834	47.85671
755.017	67.62247
755.2	68.28774
755.384	44.42364
755.567	66.46588
755.75	70.26329
755.933	55.53689
756.116	60.58153
756.299	53.28226
756.482	48.75203
756.665	63.479
756.848	57.39792
757.032	61.57722
757.215	37.17767
757.398	45.85578
757.581	47.23269
757.764	91.48436
757.947	56.86375
758.129	72.77925
758.312	23.02717
758.495	54.33324
758.678	55.76731
758.861	54.36381
759.044	80.95477
759.227	49.41639
759.41	45.32305
759.592	69.53046
759.775	56.72002
759.958	70.02524
760.141	40.3159
760.324	82.90503
760.506	77.71727
760.689	69.40208
760.872	86.48645
761.054	62.2918
761.237	53.77448
761.42	60.45073
761.602	69.24891
761.785	59.0123
761.968	69.87777
762.15	81.3011
762.333	53.84592
762.515	60.39343
762.698	47.26416
762.88	62.11312
763.063	54.64692
763.245	61.25869
763.428	43.19062
763.61	43.61191
763.793	41.64761
763.975	55.51735
764.158	49.24403
764.34	47.75681
764.522	44.34611
764.705	53.35068
764.887	70.22772
765.069	41.17774
765.252	65.8187
765.434	63.7996
765.616	57.40637
765.799	50.20662
765.981	61.43234
766.163	46.54513
766.345	72.98315
766.528	46.77543
766.71	32.04629
766.892	61.2938
767.074	73.91301
767.256	55.05065
767.438	79.81192
767.62	66.52747
767.802	90.74762
767.985	70.0228
768.167	85.91921
768.349	52.99344
768.531	70.42613
768.713	62.65165
768.895	72.75705
769.077	63.15285
769.259	102.88313
769.441	137.42069
769.623	77.08089
769.804	87.63862
769.986	87.90916
770.168	103.40384
770.35	122.06698
770.532	96.18812
770.714	96.7978
770.896	100.32018
771.077	48.25584
771.259	105.47038
771.441	90.07471
771.623	110.94334
771.804	132.70595
771.986	42.77601
772.168	75.16351
772.35	108.20191
772.531	135.55458
772.713	83.09646
772.894	111.40357
773.076	76.1446
773.258	76.41858
773.439	110.98578
773.621	126.37138
773.802	59.61802
773.984	81.5086
774.166	90.24483
774.347	128.55081
774.529	111.41571
774.71	36.42915
774.891	82.4063
775.073	85.53679
775.254	123.83638
775.436	70.79436
775.617	139.80283
775.799	71.74024
775.98	129.29947
776.161	131.98417
776.343	118.96865
776.524	81.60531
776.705	68.49186
776.886	47.13437
777.068	86.57101
777.249	153.22836
777.43	133.86303
777.611	62.35571
777.793	92.92838
777.974	122.77073
778.155	72.60302
778.336	69.03158
778.517	134.23996
778.698	69.15909
778.879	39.87416
779.061	23.81156
779.242	98.85721
779.423	101.76159
779.604	70.31804
779.785	86.92306
779.966	96.98052
780.147	111.61244
780.328	113.07412
780.509	153.53563
780.69	111.38023
780.871	74.04633
781.051	49.93144
781.232	94.25441
781.413	89.08509
781.594	81.01002
781.775	79.22842
781.956	71.96069
782.137	46.00708
782.317	72.25288
782.498	93.80146
782.679	99.03422
782.86	92.62445
783.04	81.12385
783.221	99.53995
783.402	135.7803
783.583	89.0277
783.763	113.78795
783.944	80.64735
784.124	58.50915
784.305	133.7333
784.486	102.87753
784.666	85.0707
784.847	52.04544
785.027	181.70568
785.208	74.22762
785.388	77.94508
785.569	71.63499
785.749	80.6777
785.93	74.45839
786.11	48.08506
786.291	107.27571
786.471	96.49
786.652	114.75903
786.832	80.86973
787.012	98.20079
787.193	58.33693
787.373	90.18399
787.553	78.06762
787.734	99.69284
787.914	78.05581
788.094	95.99744
788.275	99.53464
788.455	78.53951
788.635	51.61523
788.815	90.46002
788.995	59.04142
789.176	53.36984
789.356	66.69966
789.536	75.01376
789.716	94.93438
789.896	66.15747
790.076	70.24338
790.256	90.68776
790.436	36.5573
790.616	62.94676
790.796	92.82901
790.976	77.42382
791.156	68.71559
791.336	96.52356
791.516	91.15314
791.696	78.53148
791.876	49.11034
792.056	88.25018
792.236	111.6323
792.416	102.55722
792.596	100.22647
792.776	101.47611
792.956	102.08222
793.135	132.37248
793.315	64.79039
793.495	117.02012
793.675	108.128
793.854	105.15707
794.034	110.49391
794.214	62.30856
794.394	106.94394
794.573	120.95746
794.753	89.82244
794.933	65.07782
795.112	87.02106
795.292	105.24395
795.472	133.58661
795.651	53.83188
795.831	86.16925
796.01	73.655
796.19	77.59356
796.369	85.14542
796.549	102.13031
796.728	81.65679
796.908	58.30322
797.087	60.83388
797.267	82.93608
797.446	59.63203
797.626	98.52648
797.805	91.61374
797.984	65.98599
798.164	97.91341
798.343	63.04281
798.522	90.54082
798.702	84.55058
798.881	59.03444
799.06	78.40625
799.239	44.54898
799.419	60.11179
799.598	124.22149
799.777	101.5313
799.956	120.48246
800.136	74.28018
800.315	73.44149
800.494	102.53336
800.673	112.95174
800.852	108.38853
801.031	114.64681
801.21	102.06273
801.389	73.37677
801.568	88.04005
801.747	141.6478
801.926	80.71728
802.105	126.09938
802.284	84.98039
802.463	129.31996
802.642	98.67904
802.821	95.84871
803	125.22563
803.179	107.38668
803.358	127.68835
803.537	75.99255
803.716	101.5494
803.895	70.84225
804.073	90.97398
804.252	72.27965
804.431	106.59763
804.61	87.37065
804.789	114.65576
804.967	77.19668
805.146	79.72859
805.325	150.94756
805.503	99.0073
805.682	55.76911
805.861	169.20611
806.039	128.13537
806.218	75.30487
806.397	97.94229
806.575	98.43548
806.754	97.06826
806.932	66.48176
807.111	141.28014
807.289	115.645
807.468	95.65909
807.646	115.34198
807.825	102.86838
808.003	99.19628
808.182	112.51953
808.36	91.66602
808.539	77.254
808.717	135.41485
808.895	69.42853
809.074	97.64454
809.252	91.41867
809.43	112.67276
809.609	126.08071
809.787	157.81861
809.965	86.17614
810.144	95.62189
810.322	87.59512
810.5	107.57165
810.678	88.39546
810.856	162.03989
811.035	127.4433
811.213	123.55187
811.391	131.81903
811.569	99.41093
811.747	200.6273
811.925	144.4276
812.103	74.3629
812.281	85.39129
812.459	175.04592
812.637	143.83409
812.816	136.5609
812.994	168.04511
813.171	138.7196
813.349	113.52225
813.527	144.45475
813.705	157.61114
813.883	161.80399
814.061	136.78259
814.239	164.24832
814.417	164.97133
814.595	115.35868
814.773	111.68358
814.95	114.13371
815.128	107.31795
815.306	103.09507
815.484	95.22386
815.662	76.25071
815.839	66.13771
816.017	74.63788
816.195	134.09686
816.372	88.12099
816.55	130.79464
816.728	147.47388
816.905	92.3949
817.083	135.52887
817.261	101.62243
817.438	199.25219
817.616	158.60679
817.793	92.41877
817.971	127.0918
818.148	128.72005
818.326	143.42816
818.503	115.56527
818.681	157.719
818.858	86.72711
819.036	98.31945
819.213	109.06021
819.391	83.55515
819.568	73.84447
819.745	69.19545
819.923	110.33358
820.1	77.18951
820.277	64.99135
820.455	86.49401
820.632	82.65874
820.809	85.8914
820.986	58.65583
821.164	50.12918
821.341	45.77785
821.518	59.21949
821.695	48.07995
821.872	46.61241
822.05	41.19511
822.227	36.87853
822.404	38.60349
822.581	42.77848
822.758	39.46857
822.935	40.02718
823.112	43.37825
823.289	40.66994
823.466	45.26085
823.643	44.71052
823.82	50.0476
823.997	49.62894
824.174	54.2395
824.351	66.52996
824.528	65.09531
824.705	62.38689
824.882	67.73124
825.059	80.19298
825.236	63.32433
825.412	64.52281
825.589	73.34549
825.766	91.54397
825.943	63.95108
826.12	73.33537
826.296	54.27744
826.473	62.53575
826.65	60.80326
826.827	69.96903
827.003	51.25345
827.18	55.54662
827.357	59.70542
827.533	54.82215
827.71	39.72541
827.887	51.89412
828.063	58.24814
828.24	51.64248
828.416	64.20049
828.593	57.60751
828.769	75.57825
828.946	81.04213
829.122	85.35802
829.299	88.13481
829.475	55.98684
829.652	87.44946
829.828	127.21532
830.005	85.01902
830.181	122.22078
830.357	92.06663
830.534	109.68283
830.71	97.44286
830.886	118.93043
831.063	111.71021
831.239	150.60903
831.415	68.56091
831.592	130.56047
831.768	96.15604
831.944	73.83358
832.12	139.28813
832.296	133.81598
832.473	113.47714
832.649	74.24225
832.825	104.55402
833.001	62.68035
833.177	89.59593
833.353	76.98197
833.529	50.65627
833.705	66.0653
833.881	52.55723
834.058	53.75656
834.234	56.45581
834.41	55.32357
834.586	49.80329
834.761	53.02241
834.937	61.21719
835.113	62.51415
835.289	59.29209
835.465	70.7242
835.641	67.45793
835.817	73.29249
835.993	120.57845
836.169	68.65033
836.344	92.89839
836.52	107.05542
836.696	114.94408
836.872	78.41609
837.048	212.6951
837.223	97.92084
837.399	167.67151
837.575	157.18358
837.75	134.3225
837.926	183.42015
838.102	285.52055
838.277	222.18197
838.453	302.71691
838.628	292.03361
838.804	107.05631
838.98	274.31382
839.155	154.11525
839.331	178.21208
839.506	118.7977
839.682	108.64632
839.857	163.55818
840.033	170.74485
840.208	85.91934
840.384	50.88889
840.559	93.81968
840.734	141.80357
840.91	180.74034
841.085	119.37371
841.26	120.48168
841.436	140.4869
841.611	112.80345
841.786	170.36557
841.962	251.54003
842.137	167.23378
842.312	91.80304
842.487	148.00096
842.663	99.72612
842.838	132.08179
843.013	556.24109
843.188	330.11836
843.363	205.49328
843.538	530.1272
843.714	522.42318
843.889	466.24853
844.064	489.04804
844.239	289.67228
844.414	568.61691
844.589	299.83874
844.764	747.82426
844.939	490.97864
845.114	454.62431
845.289	688.46602
845.464	811.71044
845.639	724.51317
845.814	259.58847
845.989	491.50611
846.163	412.62556
846.338	714.28071
846.513	650.92528
846.688	351.87929
846.863	736.21474
847.038	421.57228
847.212	374.01626
847.387	775.65706
847.562	403.09624
847.737	635.96259
847.911	247.84367
848.086	283.9434
848.261	530.68084
848.435	349.82243
848.61	546.56039
848.785	276.62662
848.959	544.43445
849.134	679.15525
849.308	1111.97165
849.483	700.44943
849.658	713.55305
849.832	404.36633
850.007	246.45333
850.181	1092.7085
850.356	633.97388
850.53	996.43989
850.705	399.88198
850.879	256.94009
851.053	555.90712
851.228	456.54784
851.402	930.19157
851.577	649.67135
851.751	877.35954
851.925	435.10163
852.099	301.30863
852.274	302.96369
852.448	383.4277
852.622	1019.26109
852.797	419.12685
852.971	512.54495
853.145	865.87315
853.319	1024.99102
853.493	1212.51535
853.668	524.36761
853.842	1517.41899
854.016	1163.34657
854.19	1623.85527
854.364	652.05295
854.538	626.61306
854.712	772.63728
854.886	408.8684
855.06	402.27208
855.234	206.10295
855.408	863.72523
855.582	572.41077
855.756	965.85764
855.93	578.95293
856.104	779.30939
856.278	819.535
856.452	386.4695
856.626	668.14173
856.8	1148.89619
856.973	1185.3068
857.147	1130.92314
857.321	1568.91577
857.495	556.41629
857.669	844.28859
857.842	695.94649
858.016	503.58149
858.19	366.84657
858.364	1338.06181
858.537	596.6993
858.711	1246.63835
858.885	889.24174
859.058	305.41
859.232	288.92589
859.405	459.78145
859.579	808.35064
859.753	705.1433
859.926	889.13188
860.1	532.78935
860.273	1034.5847
860.447	844.35399
860.62	634.8705
860.794	891.41136
860.967	639.45181
861.141	579.77345
861.314	734.37824
861.487	720.95062
861.661	532.52257
861.834	870.63491
862.008	1104.85635
862.181	889.29485
862.354	1409.90216
862.528	707.04667
862.701	434.7127
862.874	373.6961
863.047	497.08488
863.221	513.65254
863.394	344.38232
863.567	483.62283
863.74	193.71449
863.913	1102.12956
864.087	640.12587
864.26	652.61798
864.433	688.30773
864.606	998.81609
864.779	1619.06038
864.952	320.89056
865.125	1007.00366
865.298	635.37026
865.471	613.74036
865.644	1008.76478
865.817	600.15566
865.99	1022.46373
866.163	845.71375
866.336	451.25067
866.509	434.0134
866.682	686.7024
866.855	1365.97309
867.028	214.34434
867.2	608.29662
867.373	128.43132
867.546	506.23221
867.719	1272.188
867.892	680.25828
868.064	434.91636
868.237	500.30483
868.41	523.00301
868.583	355.47757
868.755	317.11176
868.928	693.23732
869.101	892.70895
869.273	1864.52864
869.446	483.71227
869.619	924.35692
869.791	488.31097
869.964	776.3295
870.136	1030.09481
870.309	445.19088
870.481	408.74404
870.654	386.41844
870.826	445.73667
870.999	351.62923
871.171	529.70322
871.344	325.48779
871.516	461.01848
871.689	459.46542
871.861	566.92303
872.033	350.5055
872.206	382.87744
872.378	529.52781
872.55	500.92253
872.723	461.72927
872.895	688.49594
873.067	577.99335
873.24	536.73545
873.412	471.1797
873.584	384.81753
873.756	579.57927
873.928	782.00879
874.101	381.8021
874.273	540.16765
874.445	177.94386
874.617	318.71898
874.789	362.16356
874.961	395.67681
875.133	448.58432
875.305	615.36484
875.477	432.97485
875.649	211.26888
875.821	311.16356
875.993	748.39361
876.165	370.42055
876.337	535.3668
876.509	525.16216
876.681	464.49268
876.853	496.55419
877.025	742.41921
877.197	246.68633
877.369	344.09634
877.541	409.57008
877.712	120.4818
877.884	218.31855
878.056	518.60858
878.228	228.55435
878.4	518.16688
878.571	269.80351
878.743	178.3024
878.915	321.03552
879.086	184.59412
879.258	218.48099
879.43	196.28259
879.601	167.17006
879.773	166.35925
879.945	56.38923
880.116	70.46835
880.288	50.76303
880.459	51.68287
880.631	43.96801
880.802	50.97363
880.974	48.30567
881.145	38.55279
881.317	48.34767
881.488	41.09647
881.66	42.83571
881.831	41.81762
882.002	50.31432
882.174	44.26819
882.345	50.44166
882.517	37.2256
882.688	60.18712
882.859	52.02753
883.03	76.68458
883.202	74.73787
883.373	69.75085
883.544	71.40708
883.715	103.8128
883.887	103.63283
884.058	97.18572
884.229	115.72675
884.4	118.64359
884.571	148.05839
884.742	118.8322
884.914	127.24823
885.085	169.82604
885.256	216.0928
885.427	182.65179
885.598	199.42082
885.769	218.50471
885.94	236.27982
886.111	143.95523
886.282	222.83851
886.453	242.62786
886.624	195.12602
886.795	264.7162
886.966	257.97852
887.136	297.47351
887.307	232.27706
887.478	427.82732
887.649	343.51143
887.82	390.45162
887.991	272.49381
888.161	464.45127
888.332	440.07117
888.503	235.47852
888.674	473.22555
888.844	722.03648
889.015	754.31157
889.186	342.50359
889.356	650.14882
889.527	377.14103
889.698	1042.10745
889.868	304.60528
890.039	557.36349
890.209	370.5496
890.38	638.25398
890.551	470.03547
890.721	824.69189
890.892	521.10014
891.062	1181.65442
891.233	552.6867
891.403	787.18101
891.574	639.12526
891.744	422.92783
891.914	391.39581
892.085	526.36733
892.255	140.66475
892.425	556.58073
892.596	438.26904
892.766	527.05656
892.936	782.83715
893.107	468.94583
893.277	246.97193
893.447	217.06802
893.618	153.16281
893.788	253.65459
893.958	142.04545
894.128	110.66022
894.298	141.53585
894.468	168.35385
894.639	89.06136
894.809	65.0304
894.979	88.66806
895.149	115.42968
895.319	92.86973
895.489	123.44382
895.659	165.58706
895.829	102.71635
895.999	121.99875
896.169	102.22798
896.339	135.29327
896.509	267.96021
896.679	271.58501
896.849	308.30475
897.019	363.62001
897.189	364.05764
897.358	321.48472
897.528	520.59389
897.698	252.5692
897.868	371.8845
898.038	899.47571
898.208	1062.89449
898.377	289.75579
898.547	1940.82724
898.717	3402.85136
898.886	908.00904
899.056	811.87167
899.226	2036.40225
899.395	2155.20515
899.565	2482.87904
899.735	4089.79481
899.904	1670.95327
900.074	6081.10486
900.244	724.44366
900.413	3395.81543
900.583	924.92071
900.752	-1900.86436
900.922	1157.0328
901.091	158.18123
901.261	2392.96833
901.43	1268.01919
901.599	3151.65193
901.769	2823.41846
901.938	2830.38315
902.108	986.44084
902.277	1469.80031
902.446	472.70283
902.616	651.76117
902.785	612.59756
902.954	861.04315
903.124	511.94962
903.293	363.06433
903.462	154.3481
903.631	226.97066
903.801	161.79898
903.97	86.34903
904.139	131.46214
904.308	102.59998
904.477	86.8901
904.646	57.93655
904.816	82.63832
904.985	124.18957
905.154	189.19637
