Data from WindowProjectSample_Transmission__47__00047.txt Node

Date: Sat May 03 16:41:38 EDT 2025
User: jessi
Spectrometer: SR400872
Trigger mode: 0
Integration Time (sec): 5.000010E-1
Scans to average: 6
Electric dark correction enabled: true
Nonlinearity correction enabled: true
Boxcar width: 0
XAxis mode: Wavelengths
Number of Pixels in Spectrum: 3648
>>>>>Begin Spectral Data<<<<<
184.909	174654.32662
185.132	1677.12709
185.355	-1961.16974
185.578	3223.67807
185.801	-215.88171
186.024	6060.02407
186.247	1085.83088
186.47	1024.70438
186.693	-467.71644
186.916	372.31539
187.139	9763.82719
187.362	3674.34647
187.585	2721.1276
187.808	-1647.80469
188.031	79.85198
188.254	8149.73787
188.476	514.6953
188.699	-4007.79627
188.922	-374.13243
189.145	-4169.93266
189.368	-457.70249
189.591	-895.55648
189.813	-2276.74974
190.036	4993.34825
190.259	2947.76753
190.482	2266.60931
190.705	8658.7867
190.927	-1710.22569
191.15	-1698.14733
191.373	4846.91477
191.595	-1933.62724
191.818	8893.50106
192.041	-110.67374
192.263	-2477.88423
192.486	-949.43106
192.709	9062.13253
192.931	-2614.58939
193.154	-1958.68859
193.377	4477.05701
193.599	5892.06787
193.822	-2072.51135
194.044	-1834.66139
194.267	527.12622
194.489	205.13756
194.712	2104.52226
194.934	3492.15236
195.157	-8563.43717
195.379	2073.77314
195.602	5256.65526
195.824	5491.38811
196.047	-9518.89069
196.269	-11540.52618
196.492	-1125.12017
196.714	-5244.62358
196.936	4475.64261
197.159	-2523.19603
197.381	-574.09676
197.604	1017.57248
197.826	-3212.96209
198.048	-1228.548
198.271	-12631.98776
198.493	10155.20271
198.715	-2541.21011
198.938	-717.4824
199.16	-4303.71855
199.382	1659.40153
199.604	-1429.16738
199.827	-1325.79216
200.049	-4046.95207
200.271	2412.6662
200.493	-26157.57895
200.715	4756.26681
200.938	13322.97511
201.16	-221420.95719
201.382	-5826.31637
201.604	-1096.64914
201.826	-6657.20064
202.048	-7057.07181
202.27	-4278.16945
202.492	-3668.76911
202.715	-1325.55201
202.937	-3478.49166
203.159	1114.27152
203.381	-95155.46865
203.603	-1010.40607
203.825	-1433.37018
204.047	2256.95637
204.269	-905.55852
204.491	6642.48793
204.713	-8890.09581
204.935	36494.58856
205.156	2221.63161
205.378	-7347.36685
205.6	-1668.64875
205.822	6310.83994
206.044	-232.33892
206.266	-2163.70506
206.488	706.18057
206.71	-505898.29167
206.932	-14872.51074
207.153	11764.29375
207.375	-2197.05824
207.597	15381.47035
207.819	1632.95703
208.041	6838.52866
208.262	634.1749
208.484	-848.9926
208.706	-855.644
208.927	10957.18382
209.149	-8267.96699
209.371	-2692.50558
209.593	-2077.74686
209.814	-4211.86062
210.036	2090.29534
210.258	-711.66777
210.479	2157.68404
210.701	796.43809
210.922	4369.18582
211.144	-1499.088
211.366	5722.05357
211.587	-546.5512
211.809	-3540.23383
212.03	-2298.92934
212.252	-533.09424
212.473	3000.30481
212.695	-840.05401
212.916	-874.22892
213.138	673.03178
213.359	-1161.93876
213.581	-3212.53724
213.802	-1049.63799
214.024	10961.82958
214.245	-1097.35046
214.466	-179.955
214.688	-3746.67709
214.909	-771.76866
215.131	8570.92823
215.352	-1237.54767
215.573	-248853.89001
215.795	4304.15943
216.016	-3719.27593
216.237	-543.84896
216.459	-11386.85834
216.68	-1565.46615
216.901	-1667.95517
217.122	1796.96823
217.344	-8946.46899
217.565	-1603.63167
217.786	22553.87404
218.007	785.97724
218.228	-4411.78836
218.45	-5683.82482
218.671	-1419.11322
218.892	877.33715
219.113	1857.00169
219.334	281.32832
219.555	-5488.04743
219.776	34235.62514
219.997	-6487.42917
220.219	-8950.5204
220.44	-4588.48546
220.661	-1397.49076
220.882	12537.88123
221.103	-815.65232
221.324	2493.74401
221.545	-6416.43576
221.766	-1474.37153
221.987	-391.91805
222.208	1793.89695
222.429	6411.50403
222.65	-89.63308
222.87	-851.21175
223.091	37584.046
223.312	757.34403
223.533	-1936.29602
223.754	3516.21797
223.975	1679.3396
224.196	-736.03875
224.417	-29697.86823
224.637	-2300.23618
224.858	476.30917
225.079	3840.83612
225.3	1623.28868
225.521	3512.2085
225.741	-2380.23889
225.962	1485.67045
226.183	966.67424
226.404	1861.27287
226.624	2015.58753
226.845	1419.61306
227.066	2429.95163
227.286	654.84826
227.507	419.61325
227.728	381.34802
227.948	535.43078
228.169	125.58625
228.389	126.39056
228.61	52.16339
228.831	84.01725
229.051	10.18053
229.272	45.39398
229.492	60.99412
229.713	21.24089
229.933	49.63525
230.154	40.63161
230.374	68.39844
230.595	54.35668
230.815	34.91726
231.036	55.37793
231.256	-9.38663
231.477	107.48487
231.697	67.5722
231.917	61.25584
232.138	78.46272
232.358	184.84224
232.579	181.73355
232.799	29.33116
233.019	167.97281
233.24	237.31897
233.46	72.30496
233.68	107.78441
233.901	95.63775
234.121	42.88402
234.341	23.19826
234.561	-3.45435
234.782	33.73603
235.002	116.85278
235.222	2.86749
235.442	84.70017
235.662	49.21774
235.883	102.02282
236.103	88.9099
236.323	65.52636
236.543	49.61357
236.763	64.54632
236.983	61.94238
237.203	75.82406
237.423	103.61717
237.643	150.87279
237.864	140.62907
238.084	36.14389
238.304	50.42443
238.524	88.42387
238.744	65.98264
238.964	108.64089
239.184	108.58485
239.404	99.88563
239.624	52.9551
239.843	101.39642
240.063	49.51204
240.283	35.32944
240.503	38.82385
240.723	33.60051
240.943	17.10098
241.163	27.39237
241.383	20.61013
241.603	7.79451
241.822	12.0653
242.042	8.83501
242.262	9.77494
242.482	11.85237
242.702	13.84667
242.921	4.77117
243.141	10.29398
243.361	8.28761
243.581	13.33974
243.8	11.55806
244.02	6.72012
244.24	15.30664
244.459	13.81223
244.679	26.83351
244.899	16.61445
245.118	21.33342
245.338	16.7782
245.558	22.34285
245.777	12.11871
245.997	13.32273
246.216	13.91223
246.436	7.58354
246.655	5.24119
246.875	3.88137
247.094	7.95639
247.314	2.67146
247.533	4.43198
247.753	5.87514
247.972	4.16994
248.192	1.59839
248.411	2.82056
248.631	5.25967
248.85	6.49374
249.07	5.15226
249.289	8.9572
249.508	6.75724
249.728	11.02078
249.947	11.03599
250.166	12.11996
250.386	7.07838
250.605	9.33786
250.824	15.85671
251.044	11.36662
251.263	37.39969
251.482	18.97112
251.701	16.68718
251.921	0.56992
252.14	5.30188
252.359	6.53806
252.578	13.30329
252.798	4.84522
253.017	12.86966
253.236	6.67286
253.455	8.12278
253.674	16.29202
253.893	7.53446
254.112	10.75716
254.331	16.55177
254.551	14.76361
254.77	6.41478
254.989	22.12292
255.208	19.62788
255.427	21.83207
255.646	19.25428
255.865	33.95827
256.084	12.84431
256.303	13.55086
256.522	21.05935
256.741	5.18127
256.96	4.75534
257.179	12.31671
257.397	16.20416
257.616	7.90706
257.835	8.83196
258.054	21.30375
258.273	13.82299
258.492	15.54248
258.711	8.63605
258.93	4.3241
259.148	5.1596
259.367	5.75684
259.586	7.06236
259.805	3.40569
260.023	6.75128
260.242	4.91168
260.461	3.78123
260.68	1.83314
260.898	5.82296
261.117	1.84632
261.336	1.36542
261.554	5.32354
261.773	5.17591
261.992	1.13271
262.21	4.96392
262.429	6.2833
262.648	10.19134
262.866	11.81186
263.085	8.03595
263.303	7.67306
263.522	11.83156
263.74	12.61829
263.959	21.01936
264.178	9.66825
264.396	10.01294
264.615	7.40717
264.833	16.66519
265.051	14.44441
265.27	14.2236
265.488	15.55103
265.707	10.18391
265.925	15.11281
266.144	6.43563
266.362	8.74273
266.58	8.88901
266.799	6.07958
267.017	8.42787
267.235	7.24738
267.454	5.06553
267.672	3.20996
267.89	5.9151
268.109	6.44228
268.327	6.08359
268.545	1.47886
268.763	5.79261
268.982	2.71674
269.2	7.43821
269.418	4.52995
269.636	2.93034
269.854	6.50905
270.073	5.16011
270.291	2.63568
270.509	2.70695
270.727	6.08612
270.945	9.56217
271.163	10.18721
271.381	2.10754
271.599	3.71888
271.817	7.34114
272.036	2.32852
272.254	4.77798
272.472	3.33107
272.69	3.41955
272.908	3.42727
273.126	6.148
273.344	7.5324
273.562	2.426
273.779	3.9375
273.997	5.09123
274.215	6.14068
274.433	4.51625
274.651	6.17207
274.869	6.2862
275.087	3.6937
275.305	6.07675
275.523	3.61381
275.74	4.57536
275.958	7.81354
276.176	11.3154
276.394	3.78304
276.612	4.6918
276.829	4.67733
277.047	3.93912
277.265	4.02648
277.483	5.26146
277.7	6.3818
277.918	4.62192
278.136	8.70967
278.353	4.51794
278.571	2.26862
278.789	7.13383
279.006	1.71763
279.224	4.24056
279.442	6.84663
279.659	4.56358
279.877	3.5821
280.094	7.57925
280.312	1.38311
280.529	4.82902
280.747	1.51457
280.964	3.70928
281.182	8.51783
281.399	3.79928
281.617	5.54264
281.834	3.87891
282.052	3.20661
282.269	4.49199
282.487	3.17325
282.704	2.38046
282.921	3.02443
283.139	4.5332
283.356	6.00634
283.574	4.70543
283.791	2.60677
284.008	7.72467
284.226	4.08219
284.443	4.29849
284.66	5.3095
284.877	4.31151
285.095	2.94014
285.312	2.28172
285.529	1.39774
285.746	1.01253
285.964	2.70287
286.181	1.73934
286.398	2.65336
286.615	3.81311
286.832	3.70339
287.05	1.30179
287.267	2.57876
287.484	2.84755
287.701	3.82016
287.918	3.62303
288.135	3.76013
288.352	1.81297
288.569	2.12576
288.786	3.4099
289.003	2.69622
289.22	3.82477
289.437	2.52267
289.654	4.13264
289.871	4.33734
290.088	4.22024
290.305	3.0822
290.522	2.38898
290.739	2.86284
290.956	4.40658
291.173	5.18255
291.39	4.62759
291.607	3.47374
291.824	2.5545
292.04	1.72942
292.257	3.92974
292.474	4.51407
292.691	2.81334
292.908	1.59515
293.125	2.41178
293.341	1.69193
293.558	6.98439
293.775	2.79108
293.992	2.85703
294.208	1.32885
294.425	1.70812
294.642	2.39102
294.858	4.14383
295.075	1.14023
295.292	2.74983
295.508	3.4257
295.725	5.28995
295.942	2.45086
296.158	1.83688
296.375	2.91674
296.591	2.26172
296.808	2.61744
297.024	2.78643
297.241	2.85764
297.458	3.3211
297.674	0.35177
297.891	2.75093
298.107	2.19705
298.323	1.69355
298.54	4.07057
298.756	1.96448
298.973	1.08846
299.189	4.15093
299.406	2.15477
299.622	4.15341
299.838	4.3156
300.055	3.75618
300.271	1.31177
300.487	1.69121
300.704	2.00582
300.92	1.31548
301.136	5.87506
301.353	4.12936
301.569	2.90301
301.785	3.46503
302.001	4.19999
302.218	3.59924
302.434	3.6012
302.65	1.58429
302.866	2.71216
303.083	5.60663
303.299	5.73232
303.515	3.15661
303.731	3.59505
303.947	1.59527
304.163	2.11768
304.379	3.3282
304.595	3.62911
304.812	2.37831
305.028	2.06027
305.244	2.47036
305.46	3.9323
305.676	4.41797
305.892	4.92773
306.108	3.61145
306.324	2.76789
306.54	5.78591
306.756	3.89374
306.972	3.73714
307.187	3.13585
307.403	4.9235
307.619	2.49574
307.835	4.40978
308.051	5.13484
308.267	1.60163
308.483	4.83386
308.699	3.83361
308.914	3.24014
309.13	3.03426
309.346	1.80268
309.562	2.26971
309.778	1.82554
309.993	4.0442
310.209	3.70623
310.425	1.75482
310.641	3.23782
310.856	2.20733
311.072	2.16792
311.288	3.099
311.503	3.76184
311.719	1.34215
311.935	1.61959
312.15	4.21069
312.366	3.88481
312.581	4.10766
312.797	3.6877
313.013	4.40768
313.228	2.84315
313.444	3.27193
313.659	2.74781
313.875	3.79948
314.09	3.04288
314.306	4.80059
314.521	4.27724
314.737	4.2584
314.952	3.67536
315.168	3.59634
315.383	4.20437
315.599	2.83985
315.814	3.10451
316.029	4.5204
316.245	2.09557
316.46	1.5445
316.675	4.7843
316.891	5.60665
317.106	6.66462
317.321	4.1682
317.537	4.13931
317.752	4.53789
317.967	4.38793
318.183	2.56718
318.398	2.88824
318.613	4.65809
318.828	5.41053
319.043	4.43391
319.259	2.85262
319.474	4.00915
319.689	4.7957
319.904	1.22026
320.119	4.64318
320.334	3.75916
320.549	3.36704
320.765	5.08386
320.98	3.94067
321.195	4.17144
321.41	3.22161
321.625	4.31301
321.84	5.62121
322.055	5.71312
322.27	2.31651
322.485	2.21473
322.7	4.03522
322.915	4.60862
323.13	2.72371
323.345	5.71312
323.56	3.96659
323.775	4.47869
323.989	4.27985
324.204	3.57087
324.419	4.74101
324.634	2.14576
324.849	3.4509
325.064	6.69164
325.279	4.8699
325.493	4.08048
325.708	4.6237
325.923	2.63217
326.138	3.00662
326.352	5.53217
326.567	4.4004
326.782	3.06716
326.997	2.75098
327.211	4.0819
327.426	4.01213
327.641	3.37069
327.855	1.70758
328.07	4.58019
328.285	5.96408
328.499	3.0491
328.714	4.19956
328.928	4.27643
329.143	3.68902
329.358	5.24975
329.572	4.7366
329.787	5.51408
330.001	6.94115
330.216	1.48913
330.43	5.99812
330.645	5.3719
330.859	4.65744
331.074	2.33859
331.288	3.62338
331.503	5.83388
331.717	2.27304
331.931	3.53186
332.146	3.63795
332.36	6.04353
332.575	4.33982
332.789	3.65182
333.003	4.03492
333.218	4.49872
333.432	3.33328
333.646	4.35703
333.86	5.87381
334.075	5.93138
334.289	3.07555
334.503	2.52419
334.717	4.76253
334.932	3.87703
335.146	5.34788
335.36	2.822
335.574	4.5299
335.788	4.11948
336.003	4.97974
336.217	4.88801
336.431	4.29899
336.645	3.18866
336.859	2.49246
337.073	3.5477
337.287	4.18736
337.501	2.28147
337.715	4.32615
337.929	4.45386
338.143	2.44599
338.357	3.43086
338.571	2.89089
338.785	4.8466
338.999	2.92543
339.213	3.31732
339.427	2.20087
339.641	5.16548
339.855	3.17455
340.069	2.76425
340.283	4.80709
340.497	5.81992
340.711	4.34884
340.924	3.66843
341.138	2.74401
341.352	2.02626
341.566	3.95285
341.78	1.9703
341.993	2.9713
342.207	2.64381
342.421	4.12871
342.635	3.95265
342.848	3.17514
343.062	0.8221
343.276	3.10019
343.49	6.19027
343.703	2.85449
343.917	4.64509
344.131	4.82606
344.344	2.93828
344.558	3.07664
344.771	2.5653
344.985	5.32718
345.199	5.80959
345.412	4.07535
345.626	4.30653
345.839	1.6758
346.053	2.42175
346.266	2.57865
346.48	4.56688
346.693	4.01768
346.907	4.21519
347.12	2.80992
347.334	3.79391
347.547	4.11761
347.76	3.6474
347.974	5.02898
348.187	3.80652
348.401	3.43117
348.614	2.57287
348.827	3.54022
349.041	4.43193
349.254	1.80394
349.467	3.164
349.681	2.56574
349.894	2.59568
350.107	5.20967
350.32	5.94949
350.534	1.86778
350.747	3.38882
350.96	2.82398
351.173	2.855
351.386	3.4698
351.6	3.02438
351.813	3.35687
352.026	3.75385
352.239	2.4735
352.452	3.17321
352.665	4.85527
352.878	3.21102
353.092	6.29858
353.305	4.44658
353.518	4.17714
353.731	2.35129
353.944	5.12237
354.157	2.9525
354.37	3.0646
354.583	2.34835
354.796	2.37754
355.009	4.85953
355.222	3.94636
355.435	3.74384
355.647	5.08609
355.86	2.90317
356.073	3.94867
356.286	3.22058
356.499	4.96962
356.712	4.35807
356.925	4.34624
357.138	4.94748
357.35	2.76085
357.563	3.57722
357.776	4.18205
357.989	3.9001
358.201	4.58801
358.414	4.36737
358.627	5.46436
358.84	3.89765
359.052	2.7972
359.265	3.1726
359.478	5.11293
359.69	1.34674
359.903	4.86243
360.116	5.32331
360.328	2.48198
360.541	4.95127
360.753	3.61259
360.966	3.92155
361.179	4.01168
361.391	3.78376
361.604	3.54427
361.816	4.02794
362.029	3.86512
362.241	3.50761
362.454	4.1731
362.666	3.64246
362.879	4.96043
363.091	3.96637
363.304	3.78288
363.516	4.04411
363.728	3.07647
363.941	4.80175
364.153	4.40426
364.366	2.30381
364.578	3.12184
364.79	4.68648
365.003	4.55048
365.215	3.78386
365.427	5.10973
365.639	5.46533
365.852	4.67678
366.064	6.09906
366.276	4.12684
366.488	4.74725
366.701	4.25436
366.913	4.16138
367.125	4.04362
367.337	3.81721
367.549	3.94738
367.762	4.41165
367.974	4.34989
368.186	4.21056
368.398	5.50621
368.61	4.97395
368.822	5.12827
369.034	4.13169
369.246	5.46421
369.458	7.32747
369.67	3.66504
369.882	6.30152
370.094	2.47199
370.306	6.17741
370.518	4.31016
370.73	4.10994
370.942	4.3532
371.154	4.80073
371.366	4.53095
371.578	5.53387
371.79	4.58636
372.002	6.29421
372.214	7.28843
372.425	4.99833
372.637	6.64174
372.849	5.35419
373.061	3.16878
373.273	5.42696
373.484	5.49637
373.696	6.21745
373.908	3.12401
374.12	6.3239
374.331	6.11146
374.543	4.2766
374.755	4.2827
374.967	5.2891
375.178	6.61263
375.39	5.27251
375.602	5.61935
375.813	3.99865
376.025	4.6663
376.236	5.78203
376.448	5.78139
376.66	5.85977
376.871	5.89732
377.083	6.76452
377.294	7.77005
377.506	5.60724
377.717	7.31369
377.929	6.36787
378.14	5.84058
378.352	6.62929
378.563	6.94359
378.775	7.57861
378.986	5.20099
379.197	6.41796
379.409	5.73292
379.62	7.03554
379.832	6.43854
380.043	6.27211
380.254	6.88227
380.466	5.37189
380.677	9.23789
380.888	8.59469
381.1	9.26888
381.311	9.28139
381.522	7.07219
381.733	9.47292
381.945	6.79675
382.156	6.32713
382.367	6.52922
382.578	9.77733
382.789	9.99331
383.001	6.19431
383.212	8.86934
383.423	9.14375
383.634	8.30433
383.845	8.06263
384.056	7.02638
384.267	7.56829
384.478	7.65953
384.69	6.50026
384.901	8.27359
385.112	8.08104
385.323	9.57488
385.534	8.06313
385.745	8.46651
385.956	8.1682
386.167	7.01413
386.378	8.59814
386.588	7.75106
386.799	7.31511
387.01	7.02695
387.221	9.18909
387.432	8.55567
387.643	10.00304
387.854	8.00821
388.065	8.30865
388.275	8.2478
388.486	8.04056
388.697	8.69686
388.908	8.33825
389.119	9.66946
389.329	10.18538
389.54	8.95164
389.751	9.39526
389.962	10.20801
390.172	8.94329
390.383	9.30387
390.594	8.4291
390.804	8.59934
391.015	8.86464
391.226	9.7694
391.436	10.186
391.647	10.08188
391.858	10.19303
392.068	8.41221
392.279	9.08304
392.489	10.38472
392.7	10.55396
392.91	9.4347
393.121	9.48711
393.331	10.52982
393.542	11.39034
393.752	11.08135
393.963	10.8092
394.173	10.82879
394.384	11.01131
394.594	10.67523
394.804	9.48087
395.015	10.54566
395.225	10.95242
395.436	9.91353
395.646	11.09132
395.856	10.54248
396.067	9.24054
396.277	11.623
396.487	11.1803
396.697	11.22227
396.908	11.67638
397.118	11.69543
397.328	11.02598
397.538	12.02722
397.749	10.80914
397.959	12.09436
398.169	11.77164
398.379	10.28903
398.589	11.71107
398.8	12.15145
399.01	12.03897
399.22	11.38771
399.43	13.6872
399.64	11.62732
399.85	12.09622
400.06	12.15906
400.27	11.06843
400.48	12.0024
400.69	12.82144
400.9	11.59613
401.11	11.12307
401.32	12.79156
401.53	11.94578
401.74	13.5689
401.95	12.76196
402.16	12.2431
402.37	12.80068
402.58	12.01783
402.79	13.15367
403	13.45992
403.209	12.04216
403.419	13.72747
403.629	12.11311
403.839	14.12501
404.049	14.01256
404.258	12.80852
404.468	12.84009
404.678	14.02842
404.888	14.51338
405.097	13.55566
405.307	13.49231
405.517	13.87972
405.727	14.09673
405.936	13.22197
406.146	14.13505
406.356	15.08155
406.565	13.57442
406.775	13.40923
406.984	13.45191
407.194	15.70825
407.404	14.02924
407.613	14.21647
407.823	14.73246
408.032	15.34913
408.242	14.67319
408.451	13.77432
408.661	14.24091
408.87	15.77076
409.08	13.91254
409.289	14.76128
409.499	14.63968
409.708	14.37949
409.918	12.84197
410.127	14.81987
410.336	15.9844
410.546	15.54662
410.755	14.3899
410.964	14.45651
411.174	13.95564
411.383	15.58601
411.592	14.77351
411.802	14.25774
412.011	15.41078
412.22	15.05866
412.429	16.05056
412.639	16.28915
412.848	15.87752
413.057	16.83188
413.266	16.14374
413.475	15.622
413.685	15.90225
413.894	16.23878
414.103	16.32878
414.312	16.07272
414.521	15.2319
414.73	15.94372
414.939	17.42534
415.148	16.15431
415.357	16.22434
415.566	15.93519
415.776	15.7662
415.985	16.23791
416.194	16.91856
416.403	18.12787
416.611	15.38518
416.82	16.25216
417.029	16.91909
417.238	16.31122
417.447	16.43084
417.656	16.59095
417.865	16.38241
418.074	16.95744
418.283	16.86456
418.492	18.07302
418.7	17.87498
418.909	18.7903
419.118	17.51777
419.327	18.10673
419.536	17.75007
419.744	17.69083
419.953	19.2254
420.162	19.61849
420.371	19.00275
420.579	20.2073
420.788	21.11083
420.997	21.53095
421.205	22.03552
421.414	21.467
421.623	21.93618
421.831	21.09092
422.04	21.59898
422.249	20.52785
422.457	20.80019
422.666	19.64367
422.874	20.87607
423.083	20.89128
423.291	20.96951
423.5	21.28202
423.708	21.79172
423.917	22.65993
424.125	21.87786
424.334	21.85698
424.542	23.89003
424.751	23.02925
424.959	22.36672
425.167	22.50805
425.376	22.09526
425.584	20.38768
425.793	20.1162
426.001	18.80078
426.209	19.47922
426.418	18.51243
426.626	18.41615
426.834	18.53553
427.042	18.9783
427.251	18.3882
427.459	19.77408
427.667	18.83881
427.875	18.07577
428.084	18.46427
428.292	19.90204
428.5	19.34841
428.708	18.02256
428.916	18.38421
429.124	18.87564
429.333	18.86086
429.541	18.93942
429.749	19.09267
429.957	19.27431
430.165	21.1359
430.373	17.57005
430.581	19.26382
430.789	19.94421
430.997	18.95168
431.205	18.64262
431.413	19.65572
431.621	19.05498
431.829	19.82473
432.037	19.10271
432.245	19.56434
432.453	19.99659
432.661	19.39251
432.869	20.96763
433.076	19.26603
433.284	19.66961
433.492	20.32497
433.7	20.86934
433.908	19.88723
434.116	20.12519
434.323	20.09133
434.531	20.04984
434.739	20.72795
434.947	20.57934
435.154	20.9807
435.362	19.86392
435.57	19.92827
435.778	19.56772
435.985	20.35169
436.193	19.75633
436.401	21.08734
436.608	20.27178
436.816	19.70021
437.023	21.20723
437.231	21.69163
437.439	20.46318
437.646	20.8217
437.854	20.74684
438.061	21.11633
438.269	20.29827
438.476	21.18319
438.684	20.67285
438.891	20.3425
439.099	20.47615
439.306	19.91045
439.514	19.90962
439.721	21.40807
439.929	20.28289
440.136	21.39166
440.343	21.25056
440.551	21.07431
440.758	22.94697
440.965	21.50944
441.173	21.2532
441.38	20.86661
441.587	21.28621
441.795	20.89773
442.002	21.32446
442.209	21.31912
442.416	21.54196
442.624	21.63924
442.831	21.51164
443.038	20.89935
443.245	20.68447
443.452	21.0439
443.66	21.7582
443.867	20.96389
444.074	20.76773
444.281	20.57272
444.488	20.85653
444.695	21.39316
444.902	21.11417
445.109	21.79874
445.316	21.32452
445.523	22.07014
445.73	22.4788
445.937	23.57367
446.144	24.52451
446.351	25.39777
446.558	23.76808
446.765	26.35011
446.972	25.0861
447.179	24.54334
447.386	24.86523
447.593	22.63815
447.8	23.59174
448.007	21.76685
448.214	21.55078
448.42	21.41569
448.627	22.80399
448.834	21.75231
449.041	21.57458
449.248	21.79127
449.454	22.33105
449.661	22.96942
449.868	21.56873
450.075	21.32777
450.281	20.42292
450.488	20.94087
450.695	20.92266
450.901	21.04816
451.108	21.41827
451.315	22.49238
451.521	21.56997
451.728	22.75626
451.935	21.21845
452.141	21.66105
452.348	21.49705
452.554	21.73353
452.761	21.47353
452.967	23.31487
453.174	22.02472
453.38	22.07407
453.587	21.06779
453.793	22.09922
454	22.62041
454.206	23.8648
454.413	22.66857
454.619	22.62199
454.825	21.59619
455.032	22.67922
455.238	22.69268
455.445	21.06254
455.651	22.19119
455.857	20.66752
456.064	22.18273
456.27	22.13696
456.476	21.91621
456.682	21.20299
456.889	22.41182
457.095	22.50146
457.301	23.82567
457.507	22.4248
457.714	22.43652
457.92	22.40834
458.126	21.82133
458.332	22.25892
458.538	22.25546
458.744	22.33268
458.951	22.17683
459.157	23.95192
459.363	23.33889
459.569	23.96333
459.775	24.64027
459.981	24.88966
460.187	25.31178
460.393	25.06225
460.599	25.0144
460.805	23.45167
461.011	23.00341
461.217	23.84213
461.423	24.018
461.629	23.17084
461.835	23.79086
462.041	23.01613
462.247	24.06719
462.453	22.8136
462.658	22.68028
462.864	23.35813
463.07	22.9132
463.276	22.9301
463.482	22.95281
463.688	24.45696
463.893	22.19422
464.099	22.82387
464.305	24.31113
464.511	22.69745
464.716	22.56758
464.922	23.68636
465.128	22.36906
465.333	24.36275
465.539	23.74861
465.745	23.38036
465.95	22.96826
466.156	25.5586
466.362	24.06103
466.567	23.24134
466.773	23.27746
466.978	24.41639
467.184	22.70967
467.389	21.94775
467.595	23.6638
467.8	22.52034
468.006	24.48241
468.211	24.32539
468.417	22.78203
468.622	23.69007
468.828	24.07102
469.033	23.7467
469.239	25.74702
469.444	22.9695
469.649	24.4583
469.855	23.46767
470.06	23.54411
470.266	22.75524
470.471	24.19747
470.676	23.94474
470.881	22.06187
471.087	25.25825
471.292	25.12527
471.497	22.62902
471.703	23.25942
471.908	23.15194
472.113	23.971
472.318	24.40964
472.523	22.98938
472.729	24.12421
472.934	24.24112
473.139	23.61428
473.344	24.03127
473.549	24.69434
473.754	23.19867
473.959	25.74423
474.164	23.35986
474.369	23.49205
474.575	24.91556
474.78	24.10433
474.985	23.54064
475.19	22.89611
475.395	23.67467
475.6	24.01701
475.804	25.24646
476.009	24.39713
476.214	23.92095
476.419	23.66114
476.624	23.02898
476.829	23.63854
477.034	24.61995
477.239	23.81632
477.444	24.72214
477.648	24.89834
477.853	24.67433
478.058	24.19498
478.263	23.81194
478.468	23.74839
478.672	23.92742
478.877	25.79086
479.082	26.03246
479.287	24.75605
479.491	24.6176
479.696	23.88006
479.901	25.35707
480.105	25.29286
480.31	24.02994
480.515	24.48353
480.719	26.27642
480.924	24.34534
481.128	23.81873
481.333	25.00744
481.538	24.9576
481.742	24.3857
481.947	25.99038
482.151	28.20518
482.356	30.4638
482.56	35.75847
482.765	40.35514
482.969	47.48939
483.174	53.71661
483.378	61.44952
483.582	64.02121
483.787	67.35975
483.991	68.802
484.196	68.9679
484.4	67.2892
484.604	66.20057
484.809	60.2422
485.013	56.06258
485.217	50.58893
485.422	45.15363
485.626	41.10198
485.83	38.88339
486.034	38.19239
486.239	39.15729
486.443	40.8286
486.647	42.18561
486.851	45.10374
487.055	48.37761
487.26	49.14631
487.464	51.56036
487.668	50.60855
487.872	51.88178
488.076	51.23242
488.28	49.13994
488.484	45.97786
488.688	44.07623
488.892	40.95727
489.096	37.8921
489.3	35.10907
489.504	32.86256
489.708	30.97992
489.912	30.42116
490.116	29.97142
490.32	30.40173
490.524	33.24254
490.728	35.35897
490.932	37.75383
491.136	40.48474
491.34	42.71162
491.544	43.66802
491.748	43.60651
491.951	43.3413
492.155	41.95351
492.359	40.31157
492.563	36.78577
492.767	33.97504
492.97	30.22576
493.174	27.07242
493.378	25.8864
493.582	25.57889
493.785	25.94274
493.989	26.00835
494.193	25.81642
494.396	25.35278
494.6	26.19205
494.804	25.53138
495.007	25.36456
495.211	25.44628
495.414	25.19973
495.618	25.95972
495.822	26.88775
496.025	25.64174
496.229	26.33524
496.432	25.50654
496.636	25.87233
496.839	25.93975
497.043	26.98643
497.246	26.303
497.45	25.69476
497.653	26.12652
497.856	26.21448
498.06	25.48118
498.263	25.93414
498.467	26.04562
498.67	26.72124
498.873	26.47455
499.077	25.86124
499.28	26.13952
499.483	26.20776
499.686	26.79629
499.89	26.16421
500.093	26.59076
500.296	25.52666
500.499	27.40058
500.703	26.00658
500.906	26.47833
501.109	27.35634
501.312	26.24177
501.515	26.01755
501.719	26.12575
501.922	26.51092
502.125	26.28919
502.328	26.23053
502.531	25.223
502.734	26.18805
502.937	24.96406
503.14	26.28516
503.343	25.33131
503.546	26.0914
503.749	25.87802
503.952	26.76674
504.155	25.73553
504.358	26.37837
504.561	26.53183
504.764	25.12666
504.967	26.48514
505.17	26.42486
505.373	27.17769
505.576	25.99248
505.778	27.13389
505.981	25.62843
506.184	27.60011
506.387	24.93036
506.59	27.40207
506.793	27.29302
506.995	26.6575
507.198	24.91697
507.401	26.63275
507.604	26.84512
507.806	25.76302
508.009	26.17878
508.212	27.13824
508.414	26.27792
508.617	26.19805
508.82	26.55619
509.022	27.72119
509.225	26.88695
509.427	25.47197
509.63	27.67742
509.833	26.53763
510.035	26.50773
510.238	25.76535
510.44	27.88168
510.643	25.60587
510.845	28.22508
511.048	27.05403
511.25	26.16824
511.453	26.6312
511.655	27.11892
511.858	26.6175
512.06	27.38698
512.262	27.0707
512.465	27.69639
512.667	26.78631
512.869	25.97075
513.072	27.50565
513.274	27.66367
513.476	27.43438
513.679	27.48639
513.881	26.34946
514.083	28.20864
514.286	26.44661
514.488	26.44376
514.69	26.28789
514.892	26.18495
515.094	27.75081
515.297	26.35769
515.499	27.2356
515.701	26.17608
515.903	28.50921
516.105	28.55055
516.307	27.53164
516.509	25.99906
516.711	26.48196
516.913	27.21592
517.116	27.36382
517.318	27.0458
517.52	28.09738
517.722	27.95142
517.924	26.49849
518.126	27.47406
518.328	26.9539
518.529	27.77601
518.731	28.76518
518.933	27.29658
519.135	27.32529
519.337	28.23416
519.539	27.95593
519.741	26.38274
519.943	27.22433
520.145	27.24513
520.346	28.20202
520.548	27.38943
520.75	27.7578
520.952	27.17364
521.153	28.0466
521.355	28.14219
521.557	26.92984
521.759	27.64207
521.96	27.40709
522.162	26.79706
522.364	28.28703
522.565	27.00292
522.767	28.03987
522.969	28.37098
523.17	27.87169
523.372	27.79393
523.573	27.76863
523.775	27.58077
523.977	26.9113
524.178	28.89512
524.38	27.19798
524.581	28.1511
524.783	27.4457
524.984	27.8646
525.186	27.8064
525.387	28.17752
525.589	27.90317
525.79	27.5931
525.991	27.75153
526.193	28.6342
526.394	28.02401
526.596	29.08672
526.797	29.83978
526.998	30.27236
527.2	32.09038
527.401	36.53438
527.602	40.10185
527.803	45.86354
528.005	49.6856
528.206	53.55751
528.407	56.07936
528.608	56.68803
528.81	56.97326
529.011	55.65091
529.212	56.25049
529.413	52.1794
529.614	48.2614
529.815	44.68606
530.017	40.33398
530.218	36.11383
530.419	32.36442
530.62	30.55197
530.821	29.32296
531.022	27.63016
531.223	28.66011
531.424	28.66827
531.625	28.71328
531.826	28.6541
532.027	29.83242
532.228	32.52509
532.429	33.96072
532.63	35.92
532.831	37.91877
533.032	38.42056
533.233	39.90399
533.433	39.22053
533.634	39.19134
533.835	37.42254
534.036	35.66863
534.237	33.77667
534.438	31.37093
534.638	28.56642
534.839	28.4332
535.04	29.13902
535.241	28.25071
535.441	29.75414
535.642	28.91023
535.843	27.75032
536.043	27.81734
536.244	27.96367
536.445	28.40283
536.645	29.22444
536.846	28.94824
537.047	29.54891
537.247	28.19526
537.448	28.61655
537.648	28.81553
537.849	28.74352
538.049	28.57421
538.25	29.33993
538.451	29.08682
538.651	28.10791
538.851	29.23786
539.052	29.7603
539.252	29.26178
539.453	28.45195
539.653	28.75645
539.854	28.31786
540.054	28.86912
540.254	30.62762
540.455	34.05213
540.655	35.74684
540.855	39.67277
541.056	41.90872
541.256	42.40946
541.456	44.00942
541.657	43.39774
541.857	43.44951
542.057	40.91267
542.257	39.15424
542.458	38.19892
542.658	35.80057
542.858	32.60754
543.058	31.57418
543.258	29.84219
543.458	28.34239
543.659	28.29074
543.859	29.3728
544.059	29.49377
544.259	28.90541
544.459	29.82095
544.659	28.40774
544.859	29.27165
545.059	28.48056
545.259	29.80633
545.459	29.15878
545.659	29.59827
545.859	29.093
546.059	29.23583
546.259	28.6004
546.459	28.07374
546.659	27.87473
546.859	29.50249
547.059	29.3102
547.258	29.50152
547.458	29.32241
547.658	28.49243
547.858	28.39578
548.058	29.61674
548.258	29.21729
548.457	28.41001
548.657	30.69585
548.857	28.7142
549.057	29.77003
549.256	29.74818
549.456	28.59367
549.656	26.73736
549.855	30.50881
550.055	28.65016
550.255	30.28577
550.454	29.44238
550.654	28.85142
550.853	30.21249
551.053	29.57567
551.253	29.01352
551.452	29.21501
551.652	28.06276
551.851	27.50018
552.051	28.45637
552.25	28.35908
552.45	28.33459
552.649	28.81563
552.849	28.35611
553.048	28.82648
553.248	29.79997
553.447	28.13029
553.646	29.64525
553.846	30.8273
554.045	30.07542
554.244	28.18077
554.444	30.27003
554.643	28.0066
554.842	30.59383
555.042	31.18013
555.241	28.31418
555.44	27.98152
555.64	29.64567
555.839	30.87253
556.038	29.65252
556.237	27.92459
556.436	29.17028
556.636	29.65168
556.835	28.4692
557.034	30.49594
557.233	29.09285
557.432	27.51458
557.631	29.74556
557.83	29.11104
558.029	28.4239
558.228	28.30691
558.427	27.86023
558.626	29.73838
558.825	28.21962
559.024	28.83634
559.223	30.83806
559.422	28.52075
559.621	29.59817
559.82	26.2826
560.019	29.08614
560.218	28.91147
560.417	26.64424
560.616	28.25071
560.815	32.35808
561.014	27.89821
561.212	31.07076
561.411	29.35627
561.61	27.50953
561.809	28.8337
562.008	30.49135
562.206	28.75596
562.405	29.74308
562.604	29.2091
562.803	29.75466
563.001	28.88765
563.2	27.906
563.399	29.8762
563.597	27.93987
563.796	29.07393
563.995	28.17218
564.193	30.06208
564.392	28.96782
564.59	31.54983
564.789	27.36615
564.988	28.22006
565.186	29.35745
565.385	28.73023
565.583	28.99237
565.782	29.30998
565.98	29.25323
566.179	29.46188
566.377	28.92202
566.575	28.94777
566.774	30.73617
566.972	30.38998
567.171	31.59224
567.369	30.98112
567.567	29.87245
567.766	30.23591
567.964	27.95583
568.162	30.21565
568.361	30.74916
568.559	29.3869
568.757	29.94379
568.956	29.8069
569.154	29.40514
569.352	30.33973
569.55	29.66374
569.748	29.6787
569.947	28.93025
570.145	28.7403
570.343	28.51452
570.541	30.57525
570.739	28.34621
570.937	29.36021
571.135	30.2766
571.333	31.5241
571.532	31.16113
571.73	30.17759
571.928	30.36165
572.126	30.33665
572.324	29.36679
572.522	31.19892
572.72	32.83695
572.918	29.80821
573.116	30.47544
573.313	29.93225
573.511	29.98183
573.709	28.886
573.907	30.99726
574.105	29.60684
574.303	28.60005
574.501	28.39991
574.699	30.47657
574.896	30.37843
575.094	30.20933
575.292	28.39117
575.49	30.66757
575.688	29.78453
575.885	31.11447
576.083	31.89404
576.281	30.6487
576.478	28.8973
576.676	30.45668
576.874	27.8747
577.071	29.68773
577.269	32.55192
577.467	29.39361
577.664	29.75459
577.862	31.13208
578.059	28.89019
578.257	31.02383
578.455	29.19705
578.652	30.042
578.85	27.10539
579.047	29.90654
579.245	29.94985
579.442	29.57827
579.64	29.87904
579.837	27.73791
580.034	33.36278
580.232	29.61983
580.429	28.27128
580.627	30.12662
580.824	31.51575
581.021	30.48459
581.219	29.2324
581.416	28.95765
581.613	32.06784
581.811	31.87913
582.008	29.03432
582.205	30.64537
582.402	29.96187
582.6	31.90215
582.797	29.75184
582.994	29.99124
583.191	30.51832
583.388	29.9163
583.586	30.72308
583.783	31.18331
583.98	29.106
584.177	29.74331
584.374	26.19939
584.571	29.12596
584.768	29.36598
584.965	29.20354
585.162	30.37676
585.359	31.95531
585.556	29.89195
585.753	30.29605
585.95	28.3484
586.147	29.00984
586.344	30.72006
586.541	29.32595
586.738	28.13297
586.935	29.98458
587.132	28.62717
587.329	30.49327
587.526	30.05406
587.722	36.28972
587.919	28.24247
588.116	30.63482
588.313	32.19559
588.51	32.88873
588.706	29.2482
588.903	31.05566
589.1	30.85779
589.297	33.16481
589.493	30.30344
589.69	30.94176
589.887	29.66304
590.083	28.60871
590.28	29.10002
590.477	31.20552
590.673	31.18781
590.87	32.22775
591.067	30.41091
591.263	30.62684
591.46	30.5315
591.656	29.50152
591.853	31.91183
592.049	29.17882
592.246	29.69515
592.442	32.28806
592.639	31.77236
592.835	29.13412
593.032	30.93707
593.228	28.48476
593.425	28.54672
593.621	28.41615
593.817	31.28677
594.014	29.4081
594.21	30.81036
594.406	31.52271
594.603	30.81986
594.799	29.84955
594.995	27.65416
595.192	31.81036
595.388	29.87279
595.584	29.9844
595.78	28.5817
595.977	33.50491
596.173	32.43825
596.369	30.65062
596.565	29.64667
596.761	28.86566
596.957	31.8916
597.154	29.89604
597.35	30.24864
597.546	30.34084
597.742	32.09283
597.938	31.36237
598.134	29.98354
598.33	31.40572
598.526	32.48129
598.722	31.01141
598.918	32.8148
599.114	31.43108
599.31	29.4933
599.506	30.2133
599.702	29.32064
599.898	30.24584
600.094	31.54369
600.29	31.45711
600.485	31.75318
600.681	29.61832
600.877	32.90099
601.073	30.31325
601.269	32.98367
601.465	32.62315
601.66	29.21877
601.856	28.11532
602.052	33.05249
602.248	30.20613
602.443	29.01999
602.639	29.03689
602.835	29.82368
603.03	29.57762
603.226	32.01875
603.422	29.79011
603.617	30.34902
603.813	30.58844
604.009	30.68555
604.204	32.26912
604.4	29.35704
604.595	32.54955
604.791	30.02888
604.986	31.3974
605.182	30.27393
605.377	31.07944
605.573	30.63162
605.768	31.31751
605.964	31.96611
606.159	32.30069
606.355	32.99001
606.55	30.5288
606.746	32.57094
606.941	30.54753
607.136	33.78072
607.332	35.35216
607.527	29.19057
607.722	31.1936
607.918	31.07844
608.113	30.69534
608.308	32.62464
608.503	31.4686
608.699	31.34774
608.894	32.4381
609.089	29.94816
609.284	31.55037
609.479	31.08524
609.675	32.18319
609.87	30.75245
610.065	32.74001
610.26	32.83852
610.455	32.43336
610.65	31.23264
610.845	31.23601
611.04	32.35907
611.235	31.49056
611.43	30.37026
611.625	29.26813
611.82	32.86464
612.015	30.00392
612.21	33.21793
612.405	28.98777
612.6	33.5097
612.795	33.46317
612.99	31.84197
613.185	28.97914
613.38	29.67698
613.575	31.30401
613.77	35.65326
613.965	28.06145
614.159	29.68967
614.354	33.35392
614.549	32.49409
614.744	32.55421
614.938	29.12566
615.133	28.60839
615.328	33.42049
615.523	32.01512
615.717	36.221
615.912	29.84386
616.107	31.473
616.301	30.24718
616.496	29.95547
616.691	33.4668
616.885	32.61249
617.08	36.90055
617.274	32.67976
617.469	33.99957
617.664	32.61556
617.858	31.06461
618.053	32.47526
618.247	30.76482
618.442	27.30014
618.636	34.17482
618.831	30.38366
619.025	30.55962
619.219	36.32757
619.414	25.77585
619.608	31.61077
619.803	30.79009
619.997	35.56274
620.191	33.17743
620.386	31.7718
620.58	31.32078
620.774	29.17716
620.969	28.90883
621.163	30.82046
621.357	30.65556
621.551	30.55845
621.746	31.21418
621.94	30.69619
622.134	37.79894
622.328	35.77652
622.522	28.5414
622.716	33.24481
622.911	33.80183
623.105	33.25677
623.299	33.1217
623.493	38.10993
623.687	30.20101
623.881	30.58381
624.075	32.83035
624.269	34.06311
624.463	28.71144
624.657	29.28504
624.851	32.79397
625.045	33.56178
625.239	33.89858
625.433	31.36753
625.627	34.27677
625.821	31.13442
626.015	30.32351
626.209	32.37932
626.403	29.9661
626.596	32.49154
626.79	33.23982
626.984	30.25338
627.178	33.01915
627.372	32.80602
627.565	33.45886
627.759	29.62374
627.953	30.63387
628.147	32.78308
628.34	33.12017
628.534	35.7366
628.728	31.67758
628.921	34.07457
629.115	32.70287
629.309	33.81895
629.502	34.00912
629.696	32.49303
629.89	31.45083
630.083	32.52573
630.277	33.12329
630.47	35.4056
630.664	31.69724
630.857	29.02326
631.051	33.62873
631.244	34.46304
631.438	33.97591
631.631	30.08724
631.825	35.42643
632.018	34.12506
632.212	35.90372
632.405	34.54908
632.598	31.05576
632.792	32.15791
632.985	27.83625
633.178	31.57851
633.372	31.90288
633.565	31.89265
633.758	35.39704
633.952	30.26695
634.145	30.21364
634.338	32.53113
634.531	31.36742
634.724	31.87705
634.918	32.58705
635.111	31.64514
635.304	31.87992
635.497	37.52138
635.69	33.40017
635.883	35.10565
636.077	30.87391
636.27	32.83744
636.463	32.96334
636.656	33.60539
636.849	32.24888
637.042	34.30965
637.235	36.54908
637.428	34.22388
637.621	34.76708
637.814	35.64668
638.007	35.55059
638.2	35.19927
638.393	36.37579
638.586	29.54936
638.778	31.90492
638.971	32.70402
639.164	36.20065
639.357	33.63305
639.55	35.77349
639.743	34.88935
639.935	34.07754
640.128	37.97763
640.321	35.00025
640.514	32.9219
640.707	38.0376
640.899	34.8256
641.092	29.69022
641.285	51.73818
641.477	27.7946
641.67	39.11491
641.863	35.49052
642.055	33.63435
642.248	32.49488
642.441	31.87844
642.633	34.54315
642.826	36.16035
643.018	36.8987
643.211	38.6405
643.403	37.84121
643.596	38.50623
643.788	37.64999
643.981	32.43359
644.173	36.49498
644.366	33.43685
644.558	29.15791
644.751	35.91281
644.943	29.34713
645.135	37.8486
645.328	38.32242
645.52	34.39859
645.712	37.08093
645.905	41.65422
646.097	30.25952
646.289	33.42505
646.482	39.05684
646.674	31.71706
646.866	37.34587
647.058	35.58643
647.251	31.01092
647.443	32.07409
647.635	33.64018
647.827	30.44153
648.019	31.26857
648.211	33.58284
648.404	34.04131
648.596	38.5836
648.788	33.47497
648.98	35.09442
649.172	34.94362
649.364	35.22489
649.556	29.88229
649.748	41.50805
649.94	31.33899
650.132	35.63488
650.324	31.86791
650.516	32.4773
650.708	37.45955
650.9	30.39884
651.092	30.61907
651.284	30.84101
651.476	31.99073
651.667	36.16221
651.859	37.38659
652.051	33.56586
652.243	33.37208
652.435	32.70472
652.627	36.07207
652.818	35.73634
653.01	30.08722
653.202	31.26534
653.394	32.97679
653.585	35.09443
653.777	47.07234
653.969	38.34263
654.16	37.04248
654.352	30.431
654.544	32.48989
654.735	37.38454
654.927	34.19185
655.118	38.45488
655.31	35.51255
655.502	37.09332
655.693	31.84357
655.885	36.69802
656.076	38.53446
656.268	34.98467
656.459	38.98654
656.651	38.00653
656.842	33.69616
657.034	32.93596
657.225	37.104
657.416	38.24787
657.608	38.14278
657.799	35.61331
657.99	38.63038
658.182	33.57932
658.373	34.01541
658.564	37.53139
658.756	35.56123
658.947	35.04372
659.138	32.94345
659.33	33.78725
659.521	34.12031
659.712	34.82421
659.903	34.79182
660.094	34.44969
660.286	31.24553
660.477	40.53234
660.668	37.42469
660.859	35.91749
661.05	31.31839
661.241	37.64888
661.432	37.42601
661.623	33.97187
661.814	33.97479
662.006	30.75903
662.197	34.76562
662.388	38.66855
662.579	35.71126
662.77	39.31099
662.96	43.29788
663.151	37.50557
663.342	29.61714
663.533	38.11425
663.724	36.48342
663.915	40.99599
664.106	34.8722
664.297	40.94358
664.488	38.21293
664.678	33.54424
664.869	38.43583
665.06	39.49035
665.251	35.97568
665.442	37.11552
665.632	30.13924
665.823	40.72687
666.014	26.34678
666.204	37.45993
666.395	39.54111
666.586	43.30915
666.776	37.65427
666.967	40.74659
667.158	35.63638
667.348	39.42128
667.539	32.54778
667.729	38.94226
667.92	32.9507
668.111	38.48044
668.301	36.82794
668.492	35.16843
668.682	36.90163
668.873	36.34221
669.063	32.70453
669.253	37.52474
669.444	38.52797
669.634	35.82108
669.825	43.1042
670.015	39.87579
670.206	33.18912
670.396	43.20094
670.586	36.14741
670.777	37.37503
670.967	28.76173
671.157	36.37106
671.347	32.96089
671.538	40.7334
671.728	38.6693
671.918	42.87265
672.108	39.20094
672.299	35.5873
672.489	39.2943
672.679	33.40218
672.869	38.1756
673.059	45.09547
673.249	38.77202
673.44	32.38506
673.63	34.78266
673.82	40.76887
674.01	34.2108
674.2	37.13796
674.39	47.15522
674.58	40.80937
674.77	37.53588
674.96	35.09855
675.15	51.7593
675.34	42.27582
675.53	37.26254
675.72	36.14283
675.91	31.87682
676.099	44.96302
676.289	46.26532
676.479	42.54813
676.669	35.24272
676.859	39.05335
677.049	34.64869
677.238	36.76072
677.428	44.67771
677.618	40.43706
677.808	42.94343
677.997	39.72809
678.187	33.20419
678.377	39.11729
678.567	35.86153
678.756	36.03449
678.946	36.89548
679.136	33.27288
679.325	35.68007
679.515	34.32388
679.704	34.73405
679.894	39.60131
680.084	38.63258
680.273	41.53913
680.463	36.42535
680.652	35.93659
680.842	37.94021
681.031	41.5197
681.221	36.6351
681.41	41.07794
681.6	38.03767
681.789	41.34062
681.978	42.09721
682.168	39.16732
682.357	38.44741
682.547	40.51497
682.736	38.9551
682.925	42.47795
683.115	42.57349
683.304	41.79807
683.493	40.17213
683.682	40.53649
683.872	40.7632
684.061	43.64125
684.25	40.11285
684.439	45.837
684.629	40.73611
684.818	53.70488
685.007	39.27177
685.196	37.67551
685.385	45.39213
685.574	39.58097
685.763	41.4965
685.952	40.76032
686.142	35.84402
686.331	43.53618
686.52	32.1468
686.709	46.76899
686.898	45.70989
687.087	41.89494
687.276	46.78484
687.465	44.07321
687.654	39.68388
687.842	46.65486
688.031	35.49333
688.22	46.24896
688.409	40.77768
688.598	40.62922
688.787	51.53932
688.976	42.01362
689.165	48.08222
689.353	38.87224
689.542	42.15317
689.731	44.56512
689.92	48.63797
690.108	44.53235
690.297	39.26892
690.486	42.79626
690.675	45.05063
690.863	49.96655
691.052	48.86631
691.241	40.80157
691.429	42.38238
691.618	49.78708
691.806	35.9953
691.995	39.38175
692.184	41.33232
692.372	39.84836
692.561	43.5927
692.749	42.45947
692.938	54.90643
693.126	43.9685
693.315	41.58956
693.503	45.0383
693.692	46.10074
693.88	46.57757
694.068	52.28548
694.257	40.68901
694.445	44.77994
694.634	33.44457
694.822	47.30739
695.01	49.28073
695.199	50.18095
695.387	50.418
695.575	48.39433
695.763	42.61538
695.952	39.43925
696.14	36.56086
696.328	41.35116
696.516	43.14916
696.705	44.7435
696.893	43.45454
697.081	35.49337
697.269	47.01405
697.457	38.25662
697.645	37.59426
697.833	45.04555
698.021	38.30785
698.21	40.49318
698.398	40.27423
698.586	38.13716
698.774	37.1877
698.962	41.39208
699.15	38.48202
699.338	36.39519
699.526	44.60458
699.714	39.82447
699.901	40.75011
700.089	46.80158
700.277	40.67567
700.465	43.00491
700.653	46.41341
700.841	45.20736
701.029	39.62102
701.217	49.73259
701.404	45.52105
701.592	52.82439
701.78	54.29818
701.968	43.50669
702.155	42.82567
702.343	37.6869
702.531	50.12391
702.718	46.14133
702.906	43.25926
703.094	42.11052
703.281	50.30199
703.469	46.9678
703.657	52.32061
703.844	62.03034
704.032	54.89208
704.219	42.13052
704.407	46.92026
704.595	51.14878
704.782	45.65105
704.97	43.85046
705.157	43.01715
705.345	53.59436
705.532	60.35638
705.719	47.78527
705.907	54.05977
706.094	44.86614
706.282	54.65895
706.469	44.86014
706.656	47.04878
706.844	45.32093
707.031	51.65526
707.218	49.59507
707.406	56.39581
707.593	50.59363
707.78	49.30145
707.968	46.07387
708.155	41.49932
708.342	51.94157
708.529	49.25347
708.716	48.56814
708.904	56.06394
709.091	50.72409
709.278	39.94067
709.465	60.78452
709.652	57.01768
709.839	55.21805
710.026	48.69046
710.213	39.05251
710.4	49.79905
710.587	50.78477
710.774	53.06847
710.961	53.9634
711.148	47.29644
711.335	52.02417
711.522	45.34015
711.709	49.94477
711.896	60.95599
712.083	54.04445
712.27	44.81704
712.457	47.95622
712.644	38.63154
712.831	59.99897
713.017	48.87068
713.204	53.54264
713.391	44.19981
713.578	54.88142
713.765	58.10281
713.951	51.6835
714.138	68.7491
714.325	52.59382
714.512	50.50566
714.698	43.64559
714.885	59.74379
715.072	53.10729
715.258	49.47067
715.445	47.15136
715.631	57.53073
715.818	36.77287
716.005	47.03595
716.191	54.47729
716.378	48.27203
716.564	57.75973
716.751	45.37328
716.937	47.94604
717.124	58.1021
717.31	45.3043
717.497	62.89882
717.683	47.2568
717.869	66.94592
718.056	48.22317
718.242	54.11656
718.429	50.7977
718.615	44.12847
718.801	52.04809
718.988	59.4388
719.174	56.4723
719.36	50.57948
719.547	59.42822
719.733	54.47622
719.919	54.28482
720.105	59.96229
720.291	49.9565
720.478	53.78444
720.664	52.40039
720.85	48.85879
721.036	73.43812
721.222	63.20843
721.408	53.72756
721.595	67.51133
721.781	65.8833
721.967	60.56353
722.153	66.56633
722.339	57.54144
722.525	55.84327
722.711	45.91855
722.897	44.21146
723.083	49.19518
723.269	61.23575
723.455	73.96358
723.641	79.3266
723.827	54.28715
724.012	55.82948
724.198	52.22003
724.384	63.67885
724.57	57.77836
724.756	42.36387
724.942	39.9306
725.127	61.9173
725.313	63.80097
725.499	65.80944
725.685	70.71402
725.87	55.28844
726.056	47.08821
726.242	62.02481
726.428	43.57524
726.613	61.06536
726.799	50.10299
726.985	44.58228
727.17	42.3645
727.356	66.43458
727.541	46.55257
727.727	52.86351
727.913	58.51765
728.098	50.43499
728.284	58.40075
728.469	45.56956
728.655	46.5716
728.84	60.25899
729.026	61.13336
729.211	59.56998
729.397	58.38938
729.582	59.70538
729.767	54.43258
729.953	57.87315
730.138	62.32197
730.323	38.4298
730.509	46.66533
730.694	67.48162
730.879	59.33557
731.065	54.74826
731.25	74.62333
731.435	60.65049
731.621	43.52147
731.806	48.6571
731.991	56.05396
732.176	43.43562
732.361	66.94183
732.547	60.44671
732.732	42.65244
732.917	75.12875
733.102	47.82806
733.287	47.9394
733.472	55.318
733.657	57.16374
733.842	42.58634
734.027	50.86869
734.212	54.38932
734.397	49.30485
734.582	58.25099
734.767	64.50247
734.952	68.50623
735.137	36.23593
735.322	69.3076
735.507	60.78485
735.692	58.29876
735.877	76.85379
736.062	77.61908
736.247	61.09996
736.431	55.03975
736.616	67.46008
736.801	60.06482
736.986	56.19211
737.171	50.70035
737.355	43.34679
737.54	70.87011
737.725	59.21255
737.909	82.16989
738.094	52.3123
738.279	64.00529
738.463	53.99756
738.648	62.97229
738.833	61.02458
739.017	77.12246
739.202	52.91299
739.386	55.85611
739.571	48.3024
739.756	62.28808
739.94	59.2263
740.125	64.53894
740.309	51.2919
740.494	63.53359
740.678	57.20956
740.863	60.34309
741.047	60.8383
741.231	71.23839
741.416	50.20855
741.6	77.03574
741.785	50.96885
741.969	67.44141
742.153	69.22126
742.338	41.78512
742.522	57.04806
742.706	69.05451
742.89	45.38051
743.075	64.80133
743.259	71.48366
743.443	66.59821
743.627	74.3008
743.812	83.04123
743.996	33.54917
744.18	59.5998
744.364	53.88639
744.548	87.24969
744.732	57.8775
744.916	69.82848
745.1	69.69816
745.285	55.44049
745.469	66.75081
745.653	80.89516
745.837	44.88148
746.021	84.04257
746.205	70.33485
746.389	61.27044
746.573	59.39783
746.757	80.08494
746.94	58.18312
747.124	75.93323
747.308	50.15338
747.492	72.09242
747.676	55.72428
747.86	87.71743
748.044	55.61137
748.227	42.55364
748.411	102.88492
748.595	63.85767
748.779	51.92819
748.963	63.95137
749.146	59.75643
749.33	54.05253
749.514	49.29454
749.697	73.32428
749.881	56.78883
750.065	50.82898
750.248	61.76432
750.432	89.67029
750.616	61.33259
750.799	49.08695
750.983	83.52461
751.166	87.83907
751.35	40.28199
751.533	70.86356
751.717	76.60978
751.9	83.25859
752.084	54.90413
752.267	49.06253
752.451	56.32542
752.634	62.26596
752.818	69.42779
753.001	72.76537
753.184	75.80129
753.368	66.35287
753.551	21.9286
753.734	53.88963
753.918	85.53826
754.101	55.38983
754.284	67.94871
754.467	57.64697
754.651	58.60283
754.834	53.78048
755.017	74.85051
755.2	75.04669
755.384	53.19506
755.567	75.55113
755.75	73.97295
755.933	61.31375
756.116	67.45365
756.299	56.79857
756.482	52.71027
756.665	70.15458
756.848	62.82124
757.032	65.95939
757.215	47.9298
757.398	52.41268
757.581	56.33606
757.764	95.98849
757.947	62.03236
758.129	76.22237
758.312	30.55018
758.495	62.16087
758.678	61.28285
758.861	59.00989
759.044	86.84711
759.227	52.19793
759.41	53.26852
759.592	77.00024
759.775	63.78525
759.958	74.53491
760.141	45.53763
760.324	87.25342
760.506	86.76101
760.689	73.28555
760.872	90.64302
761.054	69.44652
761.237	56.65738
761.42	69.40116
761.602	76.19828
761.785	67.67487
761.968	78.23583
762.15	84.7622
762.333	57.60621
762.515	64.22056
762.698	55.01948
762.88	67.84608
763.063	61.36939
763.245	68.83935
763.428	51.24477
763.61	50.88557
763.793	48.19114
763.975	59.04547
764.158	56.09488
764.34	54.89634
764.522	50.26579
764.705	60.41393
764.887	76.35727
765.069	45.6312
765.252	70.57638
765.434	69.9745
765.616	65.66445
765.799	58.91974
765.981	70.48906
766.163	56.87575
766.345	77.07678
766.528	53.4688
766.71	35.08622
766.892	66.58247
767.074	80.90826
767.256	61.41442
767.438	88.19916
767.62	69.43106
767.802	94.60853
767.985	77.5584
768.167	93.03786
768.349	61.99484
768.531	78.80456
768.713	71.15018
768.895	78.4883
769.077	71.2615
769.259	105.39313
769.441	140.78766
769.623	83.15723
769.804	93.65842
769.986	97.35827
770.168	110.28563
770.35	131.26093
770.532	97.52418
770.714	100.34384
770.896	107.69256
771.077	58.37434
771.259	110.9723
771.441	94.17669
771.623	118.77063
771.804	133.9069
771.986	51.31372
772.168	74.46125
772.35	113.95454
772.531	142.17086
772.713	97.65467
772.894	118.6653
773.076	88.33124
773.258	75.94422
773.439	120.92231
773.621	132.23935
773.802	66.79521
773.984	85.20632
774.166	94.79116
774.347	134.74194
774.529	121.12392
774.71	45.42938
774.891	88.10303
775.073	84.87442
775.254	135.95907
775.436	73.25425
775.617	147.15119
775.799	79.70226
775.98	136.29125
776.161	141.13054
776.343	120.34614
776.524	85.67541
776.705	81.75843
776.886	51.57259
777.068	105.94252
777.249	159.00012
777.43	140.49279
777.611	68.91185
777.793	88.84129
777.974	129.09761
778.155	75.16357
778.336	67.71324
778.517	143.01606
778.698	71.88734
778.879	51.74648
779.061	31.5852
779.242	111.47962
779.423	105.3791
779.604	81.70683
779.785	89.31014
779.966	101.6272
780.147	121.33821
780.328	125.10522
780.509	157.60185
780.69	118.77202
780.871	80.54184
781.051	61.01974
781.232	101.26399
781.413	104.41305
781.594	81.08283
781.775	86.44685
781.956	78.9917
782.137	50.36612
782.317	76.87323
782.498	92.3977
782.679	104.52613
782.86	97.06181
783.04	88.98905
783.221	106.35468
783.402	140.55806
783.583	99.88353
783.763	115.8532
783.944	83.69188
784.124	60.12989
784.305	141.56518
784.486	112.67962
784.666	96.70586
784.847	64.16928
785.027	187.47491
785.208	82.52664
785.388	75.39197
785.569	78.7434
785.749	87.76142
785.93	79.5707
786.11	59.21133
786.291	108.11479
786.471	100.12079
786.652	118.16568
786.832	88.39829
787.012	95.95254
787.193	63.91196
787.373	96.19905
787.553	85.49044
787.734	100.03569
787.914	82.27212
788.094	101.87721
788.275	105.46679
788.455	84.70528
788.635	61.80155
788.815	96.1229
788.995	67.97365
789.176	56.66638
789.356	74.66635
789.536	82.99888
789.716	103.70064
789.896	73.35493
790.076	83.84654
790.256	94.72063
790.436	38.49916
790.616	65.22284
790.796	97.14254
790.976	79.80241
791.156	77.97214
791.336	112.19576
791.516	97.4276
791.696	86.49191
791.876	55.76861
792.056	99.24581
792.236	112.85933
792.416	110.60645
792.596	101.24436
792.776	110.13864
792.956	101.97612
793.135	137.69125
793.315	66.48711
793.495	126.30836
793.675	117.70852
793.854	111.87866
794.034	114.39831
794.214	68.90236
794.394	112.42691
794.573	126.54156
794.753	97.2457
794.933	73.74972
795.112	99.63253
795.292	112.65784
795.472	139.81159
795.651	62.35465
795.831	88.76849
796.01	81.02702
796.19	80.14462
796.369	85.05648
796.549	108.12288
796.728	89.24669
796.908	64.1632
797.087	61.35361
797.267	92.3608
797.446	64.57448
797.626	105.84135
797.805	100.22283
797.984	72.15552
798.164	104.15713
798.343	70.78194
798.522	94.4384
798.702	95.43267
798.881	67.43836
799.06	87.87585
799.239	52.2043
799.419	65.10118
799.598	132.17123
799.777	100.60029
799.956	128.39927
800.136	81.38436
800.315	77.26272
800.494	110.40444
800.673	125.29836
800.852	112.74535
801.031	124.04995
801.21	105.3009
801.389	82.22027
801.568	100.29105
801.747	150.61131
801.926	91.04113
802.105	129.30173
802.284	85.37989
802.463	130.1663
802.642	107.99075
802.821	99.06408
803	132.80764
803.179	113.06428
803.358	125.11091
803.537	78.46153
803.716	111.9128
803.895	74.85717
804.073	90.07893
804.252	75.24914
804.431	108.81427
804.61	97.33978
804.789	117.81632
804.967	87.22014
805.146	85.28352
805.325	159.59833
805.503	108.62891
805.682	62.03845
805.861	172.82813
806.039	125.86416
806.218	82.13769
806.397	101.78746
806.575	100.50688
806.754	100.54241
806.932	72.76088
807.111	148.92865
807.289	122.33205
807.468	101.11732
807.646	120.06576
807.825	105.96357
808.003	107.48541
808.182	121.27611
808.36	97.95329
808.539	78.76829
808.717	137.02608
808.895	76.13456
809.074	108.18276
809.252	90.0007
809.43	116.32008
809.609	135.23218
809.787	158.53437
809.965	98.67738
810.144	102.52477
810.322	100.40914
810.5	124.85887
810.678	90.20615
810.856	171.99187
811.035	131.05488
811.213	132.22253
811.391	136.1793
811.569	99.73819
811.747	205.40849
811.925	145.94187
812.103	82.00836
812.281	89.64494
812.459	179.60857
812.637	150.81691
812.816	143.66781
812.994	170.95955
813.171	141.2772
813.349	118.12923
813.527	144.08863
813.705	158.72943
813.883	174.21259
814.061	149.43368
814.239	160.72327
814.417	183.85079
814.595	120.90251
814.773	117.68209
814.95	118.60161
815.128	119.73642
815.306	101.95329
815.484	108.03439
815.662	86.3545
815.839	63.40531
816.017	85.10232
816.195	137.49783
816.372	104.68624
816.55	133.03143
816.728	147.19553
816.905	105.92579
817.083	143.95832
817.261	106.09652
817.438	199.26098
817.616	166.5792
817.793	97.10839
817.971	134.07656
818.148	135.42734
818.326	150.84459
818.503	120.62824
818.681	156.41968
818.858	91.79406
819.036	110.76504
819.213	115.90413
819.391	82.92028
819.568	85.59346
819.745	70.1694
819.923	114.71855
820.1	85.04567
820.277	73.69741
820.455	84.62851
820.632	89.66203
820.809	93.4142
820.986	64.99517
821.164	56.92687
821.341	52.79479
821.518	64.09832
821.695	52.55461
821.872	51.33253
822.05	45.91471
822.227	42.38754
822.404	44.26446
822.581	48.2912
822.758	45.91473
822.935	45.68758
823.112	48.30655
823.289	46.34145
823.466	50.36866
823.643	49.82686
823.82	54.60849
823.997	53.16544
824.174	58.80327
824.351	68.96135
824.528	67.26415
824.705	64.95904
824.882	68.10147
825.059	81.33639
825.236	61.29987
825.412	64.71886
825.589	75.64033
825.766	90.85392
825.943	65.54032
826.12	76.52009
826.296	59.74526
826.473	64.30036
826.65	66.98095
826.827	72.89536
827.003	56.14958
827.18	59.37288
827.357	64.04681
827.533	58.30185
827.71	45.05859
827.887	56.65181
828.063	62.37695
828.24	56.74527
828.416	69.21475
828.593	60.91479
828.769	79.28663
828.946	83.03486
829.122	88.67516
829.299	91.13967
829.475	62.1215
829.652	92.00931
829.828	133.98797
830.005	86.9468
830.181	121.18823
830.357	93.5165
830.534	115.51761
830.71	92.87691
830.886	113.93801
831.063	107.1211
831.239	155.26217
831.415	71.21767
831.592	136.18151
831.768	100.26064
831.944	77.70804
832.12	140.60971
832.296	134.65871
832.473	114.31244
832.649	80.21014
832.825	106.88169
833.001	66.33017
833.177	94.17778
833.353	81.3376
833.529	53.82127
833.705	72.65883
833.881	59.48284
834.058	57.49082
834.234	61.50272
834.41	61.92241
834.586	55.22228
834.761	58.59352
834.937	65.93918
835.113	68.07027
835.289	62.09969
835.465	73.77241
835.641	65.86779
835.817	74.01197
835.993	121.02314
836.169	70.74364
836.344	102.55759
836.52	105.28083
836.696	122.11314
836.872	89.23517
837.048	217.01228
837.223	100.77236
837.399	181.04417
837.575	156.57393
837.75	142.36438
837.926	194.8572
838.102	289.48113
838.277	211.00392
838.453	303.28772
838.628	296.64823
838.804	118.96008
838.98	277.7308
839.155	147.26019
839.331	190.40146
839.506	134.83855
839.682	116.56346
839.857	171.59746
840.033	175.8798
840.208	97.20189
840.384	58.82189
840.559	95.20484
840.734	152.92984
840.91	182.79834
841.085	124.96679
841.26	122.65425
841.436	133.9245
841.611	116.01942
841.786	172.4394
841.962	253.07341
842.137	155.3984
842.312	98.84862
842.487	163.26738
842.663	156.63036
842.838	129.49013
843.013	588.18223
843.188	361.4988
843.363	221.69152
843.538	522.18257
843.714	523.32364
843.889	468.10678
844.064	534.58252
844.239	290.80131
844.414	567.51496
844.589	331.14391
844.764	772.65477
844.939	493.23598
845.114	476.89425
845.289	637.8456
845.464	817.38922
845.639	736.27896
845.814	230.12254
845.989	481.32818
846.163	436.96503
846.338	748.52696
846.513	649.37302
846.688	361.58496
846.863	739.02733
847.038	422.35599
847.212	374.42933
847.387	727.7147
847.562	431.21135
847.737	624.5551
847.911	266.51077
848.086	250.02242
848.261	526.71041
848.435	373.81822
848.61	571.795
848.785	297.57411
848.959	529.12283
849.134	666.99216
849.308	1104.98021
849.483	683.73662
849.658	734.20137
849.832	385.03044
850.007	286.37956
850.181	1103.5687
850.356	695.28525
850.53	960.53289
850.705	391.90269
850.879	275.18669
851.053	548.42433
851.228	464.39333
851.402	834.9277
851.577	674.63771
851.751	859.40513
851.925	452.8656
852.099	355.0148
852.274	290.70555
852.448	397.57755
852.622	1036.30546
852.797	394.64251
852.971	487.26244
853.145	897.47212
853.319	1035.24791
853.493	1093.6778
853.668	479.23606
853.842	1540.15646
854.016	1165.57402
854.19	1614.57115
854.364	620.25838
854.538	619.87301
854.712	806.59072
854.886	401.92252
855.06	363.16644
855.234	189.94952
855.408	874.15361
855.582	598.57274
855.756	946.30953
855.93	620.39214
856.104	738.2007
856.278	827.78013
856.452	396.60856
856.626	629.86595
856.8	1141.09276
856.973	1200.11843
857.147	1150.70732
857.321	1540.4909
857.495	585.89003
857.669	817.84938
857.842	713.56363
858.016	516.07384
858.19	408.49162
858.364	1361.21487
858.537	612.41087
858.711	1154.87894
858.885	895.87786
859.058	327.07468
859.232	272.16266
859.405	487.32765
859.579	810.04372
859.753	701.16278
859.926	867.45319
860.1	513.36985
860.273	1040.26171
860.447	917.55793
860.62	625.2492
860.794	845.53888
860.967	673.25287
861.141	589.75137
861.314	740.53503
861.487	710.78292
861.661	540.87913
861.834	794.89943
862.008	1154.25543
862.181	879.46261
862.354	1468.86931
862.528	632.52441
862.701	435.38427
862.874	379.28633
863.047	567.71232
863.221	547.13635
863.394	314.63511
863.567	528.74309
863.74	196.68187
863.913	1033.21442
864.087	642.84341
864.26	666.40506
864.433	722.49688
864.606	1006.46569
864.779	1563.12022
864.952	341.55066
865.125	1016.16448
865.298	608.42311
865.471	642.35032
865.644	989.0626
865.817	623.9322
865.99	990.58277
866.163	869.7891
866.336	444.30603
866.509	429.58836
866.682	622.68893
866.855	1378.40736
867.028	218.09436
867.2	628.53838
867.373	150.0499
867.546	523.43919
867.719	1248.90481
867.892	687.25827
868.064	430.88357
868.237	494.71636
868.41	531.31276
868.583	321.17059
868.755	327.76811
868.928	690.95974
869.101	911.01453
869.273	1765.69484
869.446	485.31459
869.619	925.20975
869.791	502.56873
869.964	753.82671
870.136	1015.26048
870.309	443.42209
870.481	415.20914
870.654	379.8299
870.826	419.68202
870.999	335.50308
871.171	533.49318
871.344	307.86389
871.516	470.41786
871.689	438.45837
871.861	556.5324
872.033	365.11299
872.206	365.52596
872.378	509.22081
872.55	446.95699
872.723	366.95645
872.895	684.82282
873.067	556.99656
873.24	531.64724
873.412	456.35056
873.584	415.93363
873.756	628.19762
873.928	822.34834
874.101	401.16431
874.273	526.29969
874.445	183.58599
874.617	321.84305
874.789	385.56682
874.961	389.01285
875.133	437.05276
875.305	565.7016
875.477	420.24268
875.649	261.52538
875.821	329.44001
875.993	766.50173
876.165	383.21168
876.337	564.32794
876.509	509.10802
876.681	465.18344
876.853	473.36936
877.025	752.92509
877.197	274.40294
877.369	287.24333
877.541	437.07499
877.712	128.07732
877.884	222.55871
878.056	520.76129
878.228	240.24599
878.4	526.11175
878.571	258.51591
878.743	172.47199
878.915	327.90179
879.086	182.32431
879.258	217.94811
879.43	198.68171
879.601	172.54489
879.773	170.26458
879.945	53.7489
880.116	78.21176
880.288	52.70175
880.459	55.34078
880.631	47.19385
880.802	52.70415
880.974	51.77104
881.145	42.3455
881.317	51.9702
881.488	45.09202
881.66	46.62973
881.831	45.53568
882.002	54.73691
882.174	46.89281
882.345	52.85159
882.517	39.33282
882.688	62.99766
882.859	52.74282
883.03	75.17662
883.202	72.57238
883.373	70.24267
883.544	68.80076
883.715	97.71116
883.887	94.68648
884.058	82.59054
884.229	106.65667
884.4	101.24038
884.571	125.86976
884.742	100.76456
884.914	114.09293
885.085	168.47126
885.256	206.26708
885.427	174.95126
885.598	192.96213
885.769	216.73329
885.94	212.74852
886.111	132.02541
886.282	215.12777
886.453	214.00253
886.624	183.61386
886.795	268.60925
886.966	226.25561
887.136	288.18278
887.307	185.79977
887.478	419.65098
887.649	331.73668
887.82	376.31105
887.991	273.0907
888.161	451.64555
888.332	429.67587
888.503	224.85622
888.674	480.28789
888.844	742.76292
889.015	701.92073
889.186	326.51902
889.356	649.0926
889.527	384.55364
889.698	1047.78772
889.868	284.51405
890.039	575.06196
890.209	378.88462
890.38	610.48183
890.551	488.49717
890.721	826.66342
890.892	528.19472
891.062	1213.41636
891.233	517.78773
891.403	769.34759
891.574	588.72433
891.744	398.30799
891.914	385.12235
892.085	560.26241
892.255	162.19813
892.425	550.64059
892.596	454.50693
892.766	537.8718
892.936	788.6508
893.107	460.69512
893.277	233.62535
893.447	224.15392
893.618	149.45125
893.788	262.12358
893.958	142.13458
894.128	113.33924
894.298	147.523
894.468	169.63452
894.639	96.40913
894.809	63.65962
894.979	94.76098
895.149	114.92041
895.319	98.22246
895.489	117.8036
895.659	160.57527
895.829	100.48227
895.999	117.21509
896.169	105.05991
896.339	132.86586
896.509	264.12356
896.679	253.47442
896.849	292.47425
897.019	351.08693
897.189	327.2988
897.358	295.60897
897.528	512.16651
897.698	195.81597
897.868	374.84732
898.038	891.15258
898.208	997.28586
898.377	255.241
898.547	1908.6139
898.717	3371.0017
898.886	967.55558
899.056	812.48695
899.226	2088.07503
899.395	2133.13942
899.565	2591.94092
899.735	4546.96205
899.904	1573.23367
900.074	6051.27573
900.244	627.33216
900.413	3446.54544
900.583	872.92007
900.752	-1845.66226
900.922	1085.81205
901.091	259.95683
901.261	2318.92309
901.43	1203.29337
901.599	3132.11207
901.769	2767.9893
901.938	2838.20404
902.108	1010.00303
902.277	1501.92714
902.446	518.17661
902.616	708.19182
902.785	598.95564
902.954	816.61506
903.124	507.9051
903.293	367.12649
903.462	147.204
903.631	224.21085
903.801	160.59479
903.97	85.28031
904.139	130.76252
904.308	107.71323
904.477	92.06638
904.646	60.21887
904.816	83.25217
904.985	130.09105
905.154	186.80488
