Data from WindowProjectSample3_Transmission__34__00034.txt Node

Date: Sun May 04 10:35:54 EDT 2025
User: jessi
Spectrometer: SR400872
Trigger mode: 0
Integration Time (sec): 5.000050E-1
Scans to average: 20
Electric dark correction enabled: true
Nonlinearity correction enabled: true
Boxcar width: 0
XAxis mode: Wavelengths
Number of Pixels in Spectrum: 3648
>>>>>Begin Spectral Data<<<<<
184.909	-1592.78921
185.132	-1305.11253
185.355	-1290.32418
185.578	-1069.21867
185.801	-3595.29138
186.024	-1066.64001
186.247	-1330.06163
186.47	-2681.73117
186.693	-270.87981
186.916	-171.43557
187.139	-1005.66627
187.362	-1663.75359
187.585	-978.01607
187.808	-904.43397
188.031	-212886.86376
188.254	-1278.9098
188.476	-874.60481
188.699	-1101.88509
188.922	513.92385
189.145	-1255.45101
189.368	-1118.3678
189.591	-3398.20681
189.813	-741.09695
190.036	-1263.50858
190.259	-3212.21141
190.482	-1566.99906
190.705	-1729.44566
190.927	-988.52923
191.15	-1698.58178
191.373	-2333.6981
191.595	-2736.38173
191.818	-1188.8456
192.041	-15718.69166
192.263	-1511.52254
192.486	-426.28336
192.709	-1670.5887
192.931	-4345.37213
193.154	-1207.97303
193.377	-1215.12162
193.599	12061.93177
193.822	-802.87969
194.044	-3647.69861
194.267	-4629.08774
194.489	-1583.14612
194.712	-1779.37301
194.934	-1631.52228
195.157	-1060.06523
195.379	-697.18955
195.602	-827.38094
195.824	-1027.1614
196.047	-911.95461
196.269	-1054.68031
196.492	-1103.27829
196.714	-1074.89909
196.936	-1553.1126
197.159	-852.17438
197.381	-950.11005
197.604	-1265.59292
197.826	-1868.05808
198.048	-1562.06229
198.271	-1273.86567
198.493	-1074.64752
198.715	-910.54175
198.938	-6194.14609
199.16	-1191.2802
199.382	-916.5714
199.604	-9348.4391
199.827	-1595.6555
200.049	-972.68927
200.271	-867.96347
200.493	-2121.39533
200.715	-1005.50323
200.938	-786.49307
201.16	-1305.19224
201.382	-2712.12742
201.604	-1285.1501
201.826	-1218.40707
202.048	-548.56354
202.27	-848.52639
202.492	-1965.8356
202.715	-1980.40026
202.937	-2312.53301
203.159	-1179.31979
203.381	-1659.20832
203.603	-1355.47684
203.825	3984.14683
204.047	-1171.79277
204.269	-3178.05098
204.491	-1507.85529
204.713	-772.07881
204.935	-1278.6976
205.156	-1267.69746
205.378	-3852.85828
205.6	-951.68854
205.822	-1084.28206
206.044	2637.36298
206.266	-1309.60967
206.488	-742.38384
206.71	-1910.7129
206.932	-2342.89941
207.153	-1218.02668
207.375	-936.28992
207.597	-1105.94415
207.819	-882.96233
208.041	-1228.19748
208.262	-1155.13298
208.484	-1983.52754
208.706	-841.97715
208.927	-814.80371
209.149	-2352.28311
209.371	-804.55427
209.593	-680.57909
209.814	-636.80172
210.036	-715.3309
210.258	-569.33504
210.479	-1457.32249
210.701	11538.47971
210.922	-906.10581
211.144	-976.84831
211.366	-1977.43204
211.587	10811.27727
211.809	-966.27998
212.03	-3044.08538
212.252	1851.29627
212.473	-1209.31485
212.695	-4610.07845
212.916	-2938.61894
213.138	-6108.7464
213.359	-1008.20382
213.581	-1549.16247
213.802	-959.56665
214.024	-1326.51512
214.245	-10997.1217
214.466	-823.7593
214.688	-1312.61366
214.909	-1536.71947
215.131	-1994.30175
215.352	-947.27839
215.573	-1231.6469
215.795	-3135.6057
216.016	-1125.48305
216.237	-4395.71839
216.459	-14106.21429
216.68	-1600.24983
216.901	-1409.13594
217.122	-3646.61618
217.344	-1242.04212
217.565	-1558.95394
217.786	-1439.70974
218.007	-1157.46859
218.228	-4634.89111
218.45	-1174.65809
218.671	-1384.53421
218.892	-1615.14373
219.113	-2336.00068
219.334	-141.12988
219.555	-1395.81978
219.776	-857.40642
219.997	-1408.02813
220.219	-2880.67557
220.44	-1045.05353
220.661	-896.48506
220.882	-985.76831
221.103	-3047.69679
221.324	5674.06969
221.545	-1863.8875
221.766	-1315.71138
221.987	-2283.25721
222.208	-2860.66346
222.429	-906.44585
222.65	-1269.06993
222.87	5149.94836
223.091	-8540.83896
223.312	3898.19631
223.533	-1794.59141
223.754	-1639.41344
223.975	-2378.42634
224.196	158999.09602
224.417	-10164.94293
224.637	2147.64625
224.858	167.84673
225.079	-7331.52052
225.3	2387.62168
225.521	-865.06893
225.741	8530.85994
225.962	6955.72614
226.183	269.5558
226.404	9038.49996
226.624	1668.39821
226.845	8200.08583
227.066	1786.34187
227.286	723.23554
227.507	257.44015
227.728	287.51067
227.948	494.61895
228.169	140.88782
228.389	154.51136
228.61	83.4352
228.831	118.94489
229.051	9.61242
229.272	72.60931
229.492	105.78041
229.713	28.41581
229.933	70.85327
230.154	64.15339
230.374	106.1339
230.595	76.40872
230.815	46.99352
231.036	79.88438
231.256	-10.70321
231.477	139.72818
231.697	83.59372
231.917	85.9576
232.138	117.68109
232.358	254.03192
232.579	202.40188
232.799	39.58951
233.019	202.93589
233.24	228.85546
233.46	80.22269
233.68	133.51611
233.901	84.87829
234.121	57.44835
234.341	20.39297
234.561	-6.03607
234.782	39.12497
235.002	135.52913
235.222	-1.93081
235.442	130.01213
235.662	59.71805
235.883	118.89229
236.103	96.04327
236.323	78.41906
236.543	49.11361
236.763	82.82364
236.983	73.3393
237.203	81.18574
237.423	122.50013
237.643	178.14786
237.864	149.31905
238.084	40.46222
238.304	52.43108
238.524	88.26754
238.744	79.73307
238.964	135.55147
239.184	118.26517
239.404	122.64233
239.624	63.21179
239.843	104.63071
240.063	61.27984
240.283	40.90245
240.503	45.45988
240.723	44.16937
240.943	28.62422
241.163	33.51666
241.383	23.91415
241.603	12.96295
241.822	14.22816
242.042	10.66891
242.262	13.54649
242.482	15.31166
242.702	16.75761
242.921	5.48362
243.141	11.87579
243.361	10.98436
243.581	16.01056
243.8	13.83613
244.02	8.51837
244.24	17.04687
244.459	15.87748
244.679	32.10041
244.899	20.87377
245.118	24.75274
245.338	22.20726
245.558	24.29212
245.777	13.34215
245.997	16.27771
246.216	16.45858
246.436	9.78384
246.655	7.22279
246.875	5.59007
247.094	10.21663
247.314	3.58086
247.533	6.46044
247.753	6.9974
247.972	5.69831
248.192	2.0799
248.411	3.51273
248.631	5.7497
248.85	7.44698
249.07	7.57109
249.289	10.63212
249.508	7.18974
249.728	12.71716
249.947	12.58899
250.166	16.05569
250.386	7.71937
250.605	12.09717
250.824	20.13997
251.044	12.49024
251.263	39.10508
251.482	22.54197
251.701	18.84527
251.921	0.61998
252.14	6.42979
252.359	7.49733
252.578	16.43755
252.798	5.98212
253.017	14.09499
253.236	7.93729
253.455	10.27849
253.674	20.10207
253.893	9.93409
254.112	15.0909
254.331	21.26941
254.551	16.88594
254.77	8.50711
254.989	22.82829
255.208	17.70994
255.427	26.46972
255.646	23.15095
255.865	34.33333
256.084	14.78099
256.303	19.06492
256.522	23.06256
256.741	6.30472
256.96	6.01318
257.179	13.39528
257.397	18.60255
257.616	9.55894
257.835	10.68157
258.054	24.47165
258.273	16.99239
258.492	16.76263
258.711	10.45671
258.93	4.83412
259.148	7.09828
259.367	6.88833
259.586	8.53234
259.805	4.02843
260.023	7.40109
260.242	5.62679
260.461	4.4496
260.68	2.31957
260.898	6.68669
261.117	2.55851
261.336	1.55521
261.554	5.82845
261.773	5.97143
261.992	1.47499
262.21	6.02954
262.429	6.25377
262.648	11.09771
262.866	12.93693
263.085	9.2904
263.303	7.67993
263.522	15.058
263.74	13.98323
263.959	23.51366
264.178	12.21301
264.396	11.38506
264.615	7.51441
264.833	17.7858
265.051	15.35473
265.27	17.25415
265.488	17.20302
265.707	10.62133
265.925	16.42052
266.144	8.11191
266.362	8.94974
266.58	9.68442
266.799	8.03079
267.017	9.73151
267.235	8.06527
267.454	5.66291
267.672	2.99791
267.89	6.79588
268.109	7.19501
268.327	7.38234
268.545	1.42905
268.763	6.81981
268.982	3.17376
269.2	7.64371
269.418	4.81948
269.636	4.10576
269.854	7.45307
270.073	5.21799
270.291	3.20264
270.509	2.92406
270.727	6.67608
270.945	11.09498
271.163	10.92212
271.381	2.69505
271.599	4.8886
271.817	7.97994
272.036	2.59879
272.254	5.49767
272.472	3.94253
272.69	4.0471
272.908	4.08393
273.126	6.49071
273.344	7.98397
273.562	3.06635
273.779	4.22423
273.997	6.75829
274.215	6.32405
274.433	4.71601
274.651	7.26931
274.869	6.90752
275.087	4.48055
275.305	6.40709
275.523	4.35543
275.74	4.95146
275.958	8.60083
276.176	12.34398
276.394	3.95194
276.612	5.08735
276.829	4.91867
277.047	4.59432
277.265	4.77838
277.483	5.53579
277.7	6.34927
277.918	5.47519
278.136	9.67643
278.353	4.68898
278.571	2.764
278.789	7.38259
279.006	1.72571
279.224	4.59277
279.442	7.60667
279.659	5.50914
279.877	3.75821
280.094	8.01163
280.312	1.67287
280.529	5.42374
280.747	2.01926
280.964	4.64604
281.182	8.30974
281.399	4.76051
281.617	5.38808
281.834	4.1235
282.052	3.03108
282.269	4.9261
282.487	4.00291
282.704	3.73535
282.921	3.39773
283.139	5.04848
283.356	6.5838
283.574	5.961
283.791	2.88171
284.008	7.81904
284.226	4.71915
284.443	5.069
284.66	6.41407
284.877	5.79597
285.095	3.33398
285.312	2.67652
285.529	1.56217
285.746	1.26428
285.964	3.2911
286.181	2.186
286.398	3.05711
286.615	4.34891
286.832	4.07804
287.05	1.08352
287.267	2.93972
287.484	3.0964
287.701	4.36637
287.918	3.76617
288.135	4.26284
288.352	1.81494
288.569	2.38087
288.786	3.85107
289.003	2.74938
289.22	4.53566
289.437	2.51932
289.654	4.29629
289.871	4.44521
290.088	4.31987
290.305	3.44153
290.522	2.93316
290.739	3.22983
290.956	4.60459
291.173	5.56654
291.39	5.11555
291.607	3.65565
291.824	3.0174
292.04	2.12701
292.257	4.63697
292.474	5.06831
292.691	3.24494
292.908	1.6468
293.125	2.75394
293.341	1.82679
293.558	7.36381
293.775	3.27723
293.992	3.38844
294.208	1.27777
294.425	2.05983
294.642	2.93506
294.858	4.05688
295.075	1.18526
295.292	3.12979
295.508	3.57415
295.725	5.15128
295.942	2.70801
296.158	1.90963
296.375	3.13266
296.591	2.49991
296.808	2.515
297.024	2.93733
297.241	3.18836
297.458	3.46093
297.674	0.36476
297.891	2.7089
298.107	2.30638
298.323	1.70565
298.54	3.96206
298.756	2.12203
298.973	0.94197
299.189	4.28708
299.406	1.98616
299.622	4.27342
299.838	4.297
300.055	3.88376
300.271	0.95612
300.487	1.62636
300.704	1.94482
300.92	1.01143
301.136	5.65715
301.353	4.4222
301.569	3.09265
301.785	3.18613
302.001	4.01524
302.218	3.52802
302.434	3.66158
302.65	1.28657
302.866	2.11423
303.083	5.95901
303.299	5.68844
303.515	3.13739
303.731	3.34073
303.947	1.09036
304.163	2.07345
304.379	3.27645
304.595	3.49534
304.812	2.19887
305.028	1.83459
305.244	2.42307
305.46	4.00605
305.676	3.98328
305.892	4.73884
306.108	3.77025
306.324	2.50462
306.54	5.51727
306.756	3.81928
306.972	3.69966
307.187	2.6166
307.403	5.2107
307.619	2.32047
307.835	4.52885
308.051	4.64285
308.267	1.66691
308.483	4.32358
308.699	3.67685
308.914	2.86451
309.13	3.01548
309.346	0.88608
309.562	1.52403
309.778	1.13682
309.993	3.56286
310.209	2.80804
310.425	1.40567
310.641	2.43138
310.856	1.60337
311.072	1.48649
311.288	2.72976
311.503	3.00883
311.719	0.76856
311.935	0.57862
312.15	3.31784
312.366	2.92833
312.581	3.56125
312.797	2.75446
313.013	3.88096
313.228	2.24216
313.444	3.06718
313.659	1.81109
313.875	3.32365
314.09	2.79954
314.306	4.72323
314.521	3.91303
314.737	3.9262
314.952	3.30318
315.168	3.11649
315.383	3.36799
315.599	2.67196
315.814	2.56345
316.029	4.24764
316.245	1.52411
316.46	0.87951
316.675	4.70361
316.891	5.41022
317.106	6.86222
317.321	3.77503
317.537	3.58678
317.752	4.20167
317.967	4.20214
318.183	2.22143
318.398	2.58152
318.613	4.44431
318.828	4.77189
319.043	4.19749
319.259	2.83385
319.474	3.38198
319.689	4.54132
319.904	0.68417
320.119	4.28954
320.334	3.52006
320.549	2.65765
320.765	4.63316
320.98	3.69572
321.195	4.22325
321.41	3.06232
321.625	4.20625
321.84	5.35659
322.055	5.53261
322.27	2.22855
322.485	1.87213
322.7	3.44676
322.915	4.48166
323.13	2.11344
323.345	5.03725
323.56	3.99531
323.775	3.85137
323.989	3.81245
324.204	3.37438
324.419	4.14657
324.634	1.32193
324.849	3.03977
325.064	5.70683
325.279	4.37435
325.493	3.81561
325.708	4.31428
325.923	2.18022
326.138	2.28818
326.352	5.20337
326.567	4.12648
326.782	2.85739
326.997	2.33446
327.211	3.81271
327.426	3.72418
327.641	2.80637
327.855	1.19265
328.07	3.95641
328.285	5.44877
328.499	2.75811
328.714	3.56302
328.928	3.94036
329.143	3.19409
329.358	4.75785
329.572	4.64641
329.787	4.79805
330.001	6.78528
330.216	1.62244
330.43	5.59839
330.645	5.46815
330.859	4.41323
331.074	2.12996
331.288	3.34642
331.503	5.19275
331.717	1.90399
331.931	3.09422
332.146	3.50746
332.36	5.65928
332.575	3.98048
332.789	3.57468
333.003	3.02238
333.218	3.98108
333.432	2.44416
333.646	4.30994
333.86	5.19864
334.075	5.57524
334.289	2.5774
334.503	1.86734
334.717	3.89722
334.932	3.73944
335.146	4.49693
335.36	2.64292
335.574	4.29261
335.788	3.87617
336.003	4.61704
336.217	4.52633
336.431	3.8435
336.645	2.73139
336.859	1.93036
337.073	3.30558
337.287	3.43688
337.501	1.94853
337.715	3.62212
337.929	3.87532
338.143	1.77025
338.357	3.13405
338.571	2.20348
338.785	3.95813
338.999	2.5636
339.213	2.45933
339.427	1.64657
339.641	4.75027
339.855	2.67749
340.069	2.40194
340.283	4.38417
340.497	5.25243
340.711	3.88654
340.924	2.88222
341.138	2.04131
341.352	1.67983
341.566	3.35773
341.78	1.19747
341.993	2.51338
342.207	2.11081
342.421	3.59721
342.635	3.01501
342.848	2.49972
343.062	0.54493
343.276	2.51735
343.49	5.61806
343.703	2.34679
343.917	4.22957
344.131	4.19582
344.344	2.36531
344.558	2.43149
344.771	1.97412
344.985	4.33724
345.199	5.13528
345.412	3.49689
345.626	3.54153
345.839	1.16073
346.053	1.96191
346.266	2.00574
346.48	3.7676
346.693	3.54157
346.907	3.64461
347.12	2.06687
347.334	3.28659
347.547	3.49764
347.76	2.81848
347.974	4.34336
348.187	3.45797
348.401	2.74566
348.614	2.26085
348.827	2.64063
349.041	3.66961
349.254	1.22424
349.467	2.88674
349.681	1.69714
349.894	2.38535
350.107	4.39655
350.32	5.20951
350.534	1.4101
350.747	2.77159
350.96	1.94692
351.173	2.19735
351.386	2.45602
351.6	2.40512
351.813	2.30171
352.026	2.94751
352.239	1.52138
352.452	2.68398
352.665	4.10777
352.878	2.70229
353.092	5.28211
353.305	3.76666
353.518	3.12194
353.731	2.00399
353.944	3.97719
354.157	2.25981
354.37	2.07251
354.583	1.8677
354.796	1.27632
355.009	4.25805
355.222	2.99013
355.435	3.01844
355.647	4.19044
355.86	1.92646
356.073	2.80451
356.286	2.44466
356.499	3.73463
356.712	3.46643
356.925	3.15185
357.138	3.86598
357.35	1.81175
357.563	2.35747
357.776	2.90997
357.989	2.63855
358.201	3.41377
358.414	3.07779
358.627	3.97676
358.84	2.51106
359.052	1.57437
359.265	1.74194
359.478	3.74938
359.69	0.10437
359.903	3.56126
360.116	3.55125
360.328	0.96876
360.541	3.56411
360.753	1.83957
360.966	2.18145
361.179	2.18238
361.391	2.14589
361.604	1.65447
361.816	2.10753
362.029	2.01307
362.241	1.67052
362.454	2.06605
362.666	1.78306
362.879	2.66762
363.091	2.23256
363.304	1.81946
363.516	2.43252
363.728	1.35001
363.941	3.19029
364.153	2.18236
364.366	0.36725
364.578	1.50105
364.79	3.07437
365.003	2.54723
365.215	2.13792
365.427	3.08737
365.639	3.75319
365.852	2.80038
366.064	4.4252
366.276	2.14491
366.488	3.14683
366.701	2.18972
366.913	2.30384
367.125	2.48188
367.337	1.92734
367.549	2.00351
367.762	2.58539
367.974	2.64838
368.186	2.07143
368.398	3.54422
368.61	3.26898
368.822	3.40692
369.034	2.45003
369.246	3.30905
369.458	5.03315
369.67	1.62726
369.882	4.44167
370.094	0.70128
370.306	4.15691
370.518	2.20531
370.73	2.04368
370.942	1.81336
371.154	2.44392
371.366	2.08037
371.578	3.04343
371.79	2.02951
372.002	3.61875
372.214	4.37005
372.425	2.74908
372.637	4.01044
372.849	3.02885
373.061	0.46922
373.273	3.11128
373.484	3.05177
373.696	3.52971
373.908	0.41416
374.12	3.73856
374.331	3.16321
374.543	1.92681
374.755	1.63393
374.967	2.75515
375.178	3.43858
375.39	2.2945
375.602	2.60199
375.813	1.24852
376.025	1.29315
376.236	2.42994
376.448	2.70544
376.66	2.17898
376.871	2.09471
377.083	3.34462
377.294	3.62132
377.506	2.11153
377.717	3.82605
377.929	2.7133
378.14	1.85814
378.352	3.0663
378.563	3.03555
378.775	3.83124
378.986	1.75386
379.197	2.84333
379.409	2.06886
379.62	3.42382
379.832	2.67165
380.043	2.37443
380.254	2.82845
380.466	1.38065
380.677	5.23099
380.888	4.69662
381.1	5.16215
381.311	4.95772
381.522	2.59347
381.733	5.38262
381.945	2.3703
382.156	2.66608
382.367	2.08221
382.578	5.21092
382.789	5.16756
383.001	2.00932
383.212	4.06044
383.423	4.16543
383.634	3.69049
383.845	3.11394
384.056	2.15428
384.267	2.62685
384.478	2.44367
384.69	1.54217
384.901	3.13325
385.112	2.89587
385.323	4.05162
385.534	2.99525
385.745	2.80824
385.956	2.988
386.167	1.75381
386.378	3.18948
386.588	1.49622
386.799	1.88681
387.01	0.99147
387.221	3.43025
387.432	2.5233
387.643	4.46948
387.854	2.27115
388.065	2.2773
388.275	2.39767
388.486	2.27408
388.697	2.52111
388.908	2.37615
389.119	3.59846
389.329	4.29223
389.54	2.5602
389.751	2.89184
389.962	3.69722
390.172	2.90436
390.383	2.075
390.594	1.84334
390.804	1.92868
391.015	1.94302
391.226	2.61267
391.436	3.00807
391.647	2.83852
391.858	3.19664
392.068	0.98898
392.279	1.49963
392.489	2.50843
392.7	3.50453
392.91	1.50246
393.121	1.77517
393.331	2.88036
393.542	3.61436
393.752	3.08183
393.963	2.64778
394.173	2.53659
394.384	3.20687
394.594	2.41566
394.804	1.45757
395.015	2.6216
395.225	3.12877
395.436	1.50059
395.646	3.10001
395.856	1.84006
396.067	1.30215
396.277	3.43891
396.487	2.97541
396.697	2.84141
396.908	3.3381
397.118	3.28716
397.328	2.63514
397.538	3.48469
397.749	2.05861
397.959	3.39549
398.169	3.17778
398.379	1.43845
398.589	3.2196
398.8	2.65699
399.01	2.67984
399.22	2.21831
399.43	4.65088
399.64	2.31247
399.85	3.11029
400.06	2.57125
400.27	2.08177
400.48	2.50578
400.69	3.96252
400.9	2.1551
401.11	1.92813
401.32	3.30492
401.53	2.10176
401.74	4.06679
401.95	3.27829
402.16	1.76051
402.37	3.117
402.58	2.00205
402.79	3.21167
403	3.37558
403.209	2.07246
403.419	3.26753
403.629	2.13919
403.839	3.28959
404.049	3.2645
404.258	1.86038
404.468	1.73601
404.678	3.00558
404.888	3.21112
405.097	1.79462
405.307	2.43088
405.517	2.95574
405.727	2.75794
405.936	2.1898
406.146	2.73995
406.356	3.69474
406.565	2.59309
406.775	2.16957
406.984	2.29017
407.194	4.15876
407.404	2.67353
407.613	2.92368
407.823	3.38148
408.032	3.78834
408.242	3.60887
408.451	2.21513
408.661	2.5468
408.87	4.35174
409.08	2.32253
409.289	3.10935
409.499	2.78304
409.708	2.71565
409.918	0.99981
410.127	2.59612
410.336	4.00367
410.546	3.20166
410.755	2.38657
410.964	2.27233
411.174	2.10769
411.383	3.22108
411.592	3.17352
411.802	1.88578
412.011	3.64865
412.22	2.73221
412.429	4.103
412.639	3.90379
412.848	3.91261
413.057	4.20462
413.266	3.8159
413.475	2.94725
413.685	3.5516
413.894	3.51781
414.103	3.80677
414.312	3.3626
414.521	2.78416
414.73	2.92839
414.939	4.31933
415.148	3.25403
415.357	3.04772
415.566	2.41817
415.776	2.37307
415.985	2.22668
416.194	3.40053
416.403	3.98161
416.611	1.63544
416.82	2.16586
417.029	2.65649
417.238	2.03235
417.447	1.84873
417.656	2.08207
417.865	1.98187
418.074	2.09397
418.283	2.42548
418.492	3.00017
418.7	2.84907
418.909	3.48357
419.118	2.43838
419.327	2.63919
419.536	2.41518
419.744	1.90227
419.953	3.00938
420.162	2.97759
420.371	1.89288
420.579	1.81199
420.788	2.88628
420.997	2.84338
421.205	2.88679
421.414	2.56384
421.623	2.54625
421.831	2.09683
422.04	2.95567
422.249	2.07274
422.457	2.6592
422.666	2.06835
422.874	3.11004
423.083	3.03421
423.291	2.92442
423.5	2.61322
423.708	2.77456
423.917	3.25286
424.125	2.76603
424.334	2.37327
424.542	4.23187
424.751	3.44768
424.959	3.20644
425.167	3.4706
425.376	3.41266
425.584	2.71163
425.793	2.99689
426.001	2.17981
426.209	3.33517
426.418	2.28145
426.626	2.51612
426.834	2.29456
427.042	2.93542
427.251	2.37481
427.459	3.53119
427.667	3.11494
427.875	2.08979
428.084	2.53271
428.292	3.84659
428.5	3.23941
428.708	2.32861
428.916	2.30686
429.124	3.16689
429.333	2.69398
429.541	2.64627
429.749	2.97284
429.957	2.89364
430.165	4.54295
430.373	2.05764
430.581	3.11976
430.789	3.9179
430.997	2.63939
431.205	2.48422
431.413	2.94116
431.621	2.63617
431.829	3.3875
432.037	2.58382
432.245	3.18923
432.453	3.13146
432.661	2.59138
432.869	4.28193
433.076	2.08098
433.284	2.69385
433.492	3.18884
433.7	3.71142
433.908	2.49743
434.116	2.92365
434.323	3.06749
434.531	2.93989
434.739	3.26176
434.947	3.56525
435.154	3.43335
435.362	3.14807
435.57	2.85531
435.778	2.67332
435.985	3.29332
436.193	2.72681
436.401	3.79655
436.608	3.02802
436.816	2.71468
437.023	4.2699
437.231	4.28302
437.439	3.22234
437.646	3.42264
437.854	3.41375
438.061	3.49064
438.269	2.86686
438.476	3.50401
438.684	3.05564
438.891	2.7069
439.099	2.47053
439.306	1.96657
439.514	2.22805
439.721	3.16311
439.929	2.48457
440.136	3.17061
440.343	3.05896
440.551	2.6691
440.758	4.14433
440.965	3.31871
441.173	3.04394
441.38	2.54879
441.587	3.2299
441.795	2.7054
442.002	3.2566
442.209	3.35531
442.416	3.60423
442.624	3.52171
442.831	3.49325
443.038	2.81348
443.245	2.47751
443.452	2.93213
443.66	3.7859
443.867	2.54628
444.074	2.84666
444.281	2.62314
444.488	2.89142
444.695	2.97801
444.902	2.64599
445.109	3.36781
445.316	2.7215
445.523	2.59158
445.73	2.38137
445.937	3.12976
446.144	3.41895
446.351	3.39723
446.558	2.58075
446.765	3.8771
446.972	3.80241
447.179	3.08713
447.386	4.01718
447.593	2.80385
447.8	3.87006
448.007	2.89152
448.214	3.17225
448.42	2.74842
448.627	3.9918
448.834	3.11094
449.041	3.04343
449.248	3.01607
449.454	3.95414
449.661	4.69449
449.868	3.09564
450.075	2.85693
450.281	1.93487
450.488	2.51383
450.695	2.85505
450.901	2.72295
451.108	3.17506
451.315	4.00797
451.521	3.18492
451.728	3.99671
451.935	2.82358
452.141	3.16879
452.348	3.34121
452.554	3.20844
452.761	3.02028
452.967	4.41948
453.174	3.443
453.38	3.48
453.587	2.52023
453.793	3.42634
454	4.02331
454.206	4.90161
454.413	4.31162
454.619	3.61908
454.825	2.83842
455.032	3.76752
455.238	4.21864
455.445	2.52257
455.651	3.56394
455.857	2.14585
456.064	3.22182
456.27	3.3095
456.476	3.27937
456.682	2.39168
456.889	3.6929
457.095	3.80174
457.301	5.10666
457.507	3.44031
457.714	3.48057
457.92	3.36983
458.126	2.81007
458.332	3.04197
458.538	2.79175
458.744	2.85314
458.951	2.80788
459.157	4.06836
459.363	3.25115
459.569	3.08203
459.775	3.81363
459.981	2.78935
460.187	3.33363
460.393	3.68179
460.599	4.10552
460.805	3.39714
461.011	3.50195
461.217	4.28891
461.423	4.43193
461.629	3.36632
461.835	4.06943
462.041	3.435
462.247	4.80273
462.453	3.5056
462.658	3.69657
462.864	4.17569
463.07	3.93885
463.276	3.85993
463.482	3.84838
463.688	4.58809
463.893	3.40421
464.099	3.44238
464.305	4.93732
464.511	3.2928
464.716	3.76331
464.922	4.2697
465.128	3.24025
465.333	5.01212
465.539	4.13561
465.745	3.48515
465.95	3.90466
466.156	5.78904
466.362	4.5908
466.567	3.61636
466.773	3.41491
466.978	4.88991
467.184	3.1048
467.389	2.19792
467.595	4.24939
467.8	3.04242
468.006	4.76471
468.211	4.58695
468.417	3.10655
468.622	4.21345
468.828	4.37247
469.033	4.05077
469.239	6.03994
469.444	3.43511
469.649	4.53808
469.855	3.80403
470.06	3.97328
470.266	3.1861
470.471	4.35664
470.676	4.24546
470.881	2.80127
471.087	4.95292
471.292	5.25756
471.497	2.99409
471.703	3.80369
471.908	3.49527
472.113	4.04967
472.318	4.52401
472.523	3.2666
472.729	4.1805
472.934	4.27505
473.139	3.77309
473.344	4.40602
473.549	4.83478
473.754	3.45202
473.959	5.37889
474.164	3.44757
474.369	3.88388
474.575	4.6561
474.78	4.12991
474.985	3.78111
475.19	2.79677
475.395	3.37607
475.6	3.80918
475.804	4.83379
476.009	3.84999
476.214	3.95602
476.419	3.64769
476.624	2.73906
476.829	3.3386
477.034	4.23464
477.239	3.30107
477.444	3.97546
477.648	4.22126
477.853	4.36659
478.058	3.60531
478.263	3.39368
478.468	3.07857
478.672	3.19645
478.877	4.67999
479.082	5.25754
479.287	4.09937
479.491	3.91792
479.696	3.06902
479.901	4.57404
480.105	4.25042
480.31	3.42866
480.515	3.67636
480.719	5.34298
480.924	3.27992
481.128	2.93708
481.333	3.77188
481.538	3.82664
481.742	3.30068
481.947	3.76346
482.151	4.03622
482.356	4.04071
482.56	5.06476
482.765	5.32234
482.969	6.57254
483.174	7.50839
483.378	8.71513
483.582	8.63532
483.787	9.54013
483.991	9.48974
484.196	9.65497
484.4	9.43045
484.604	9.74128
484.809	8.41015
485.013	8.24746
485.217	7.38597
485.422	6.56997
485.626	6.07507
485.83	5.65976
486.034	5.51737
486.239	5.74615
486.443	5.74701
486.647	5.72726
486.851	6.53773
487.055	7.1084
487.26	6.58791
487.464	7.1072
487.668	6.62269
487.872	6.58535
488.076	7.21878
488.28	6.69965
488.484	6.14234
488.688	6.34941
488.892	6.09761
489.096	5.79007
489.3	5.08108
489.504	4.87511
489.708	5.07129
489.912	4.92008
490.116	4.79389
490.32	4.09871
490.524	4.91414
490.728	5.14291
490.932	5.25569
491.136	5.32341
491.34	6.30012
491.544	6.54559
491.748	6.13045
491.951	6.11529
492.155	5.89441
492.359	5.93448
492.563	4.98046
492.767	4.78511
492.97	4.45924
493.174	3.84968
493.378	4.08294
493.582	3.68142
493.785	4.21592
493.989	4.34428
494.193	4.34852
494.396	3.97552
494.6	4.76161
494.804	4.18609
495.007	3.82964
495.211	3.72145
495.414	4.10268
495.618	4.24537
495.822	4.83107
496.025	4.11545
496.229	4.64136
496.432	3.52793
496.636	4.10346
496.839	3.90511
497.043	5.14605
497.246	4.20241
497.45	3.79489
497.653	3.94809
497.856	4.30025
498.06	3.51297
498.263	3.93585
498.467	3.76575
498.67	4.82851
498.873	4.51102
499.077	4.02892
499.28	3.99189
499.483	4.47832
499.686	4.73046
499.89	4.61239
500.093	4.77404
500.296	3.85568
500.499	5.42624
500.703	4.37912
500.906	4.32559
501.109	5.61806
501.312	4.41411
501.515	4.23426
501.719	4.64435
501.922	5.3773
502.125	4.59756
502.328	4.19473
502.531	3.57633
502.734	4.41927
502.937	3.04814
503.14	4.3985
503.343	3.57163
503.546	4.08923
503.749	3.85898
503.952	4.69156
504.155	3.6916
504.358	4.80261
504.561	4.3154
504.764	3.49417
504.967	4.35173
505.17	4.38649
505.373	5.58441
505.576	4.49783
505.778	4.83847
505.981	4.04529
506.184	5.25559
506.387	3.30364
506.59	5.69207
506.793	5.27628
506.995	4.76971
507.198	3.11774
507.401	4.38667
507.604	4.64463
507.806	3.62291
508.009	3.8708
508.212	4.60655
508.414	3.97051
508.617	3.94262
508.82	4.23123
509.022	5.16122
509.225	4.4995
509.427	3.16082
509.63	5.25037
509.833	4.34266
510.035	4.22175
510.238	3.3885
510.44	5.10779
510.643	2.91653
510.845	5.91654
511.048	4.72555
511.25	4.04496
511.453	4.31756
511.655	4.68429
511.858	4.06095
512.06	4.97416
512.262	4.35377
512.465	4.96573
512.667	4.00577
512.869	3.6881
513.072	4.65508
513.274	5.18824
513.476	4.85045
513.679	5.0483
513.881	3.72225
514.083	5.64785
514.286	4.05329
514.488	4.099
514.69	3.75196
514.892	3.61616
515.094	4.84196
515.297	4.03509
515.499	4.52184
515.701	3.93345
515.903	5.61419
516.105	5.64515
516.307	4.99465
516.509	3.22688
516.711	3.55231
516.913	4.42437
517.116	4.20883
517.318	4.04745
517.52	5.06642
517.722	4.68343
517.924	3.42861
518.126	4.50113
518.328	3.78219
518.529	4.50018
518.731	5.35971
518.933	3.95175
519.135	4.28214
519.337	5.0229
519.539	4.69452
519.741	3.35599
519.943	4.36609
520.145	4.26423
520.346	4.88455
520.548	4.28877
520.75	4.74862
520.952	4.22217
521.153	4.55986
521.355	4.8856
521.557	3.77512
521.759	4.71561
521.96	4.57802
522.162	3.80007
522.364	5.33365
522.565	4.01354
522.767	5.0971
522.969	5.55307
523.17	4.867
523.372	4.84702
523.573	4.11256
523.775	4.45934
523.977	3.80099
524.178	5.52678
524.38	3.8936
524.581	4.94143
524.783	4.14399
524.984	4.71194
525.186	4.26466
525.387	4.74466
525.589	4.36649
525.79	4.12937
525.991	3.89164
526.193	4.5063
526.394	3.49574
526.596	4.50228
526.797	4.50823
526.998	4.30043
527.2	4.03674
527.401	5.55635
527.602	5.71916
527.803	7.20622
528.005	7.19247
528.206	7.95955
528.407	8.35449
528.608	7.99995
528.81	8.23788
529.011	7.54639
529.212	8.5279
529.413	7.7508
529.614	7.09976
529.815	7.04859
530.017	6.46235
530.218	5.72477
530.419	4.90803
530.62	4.90913
530.821	4.75719
531.022	3.85299
531.223	4.96507
531.424	4.86901
531.625	4.75966
531.826	4.60215
532.027	4.61732
532.228	5.64542
532.429	5.17613
532.63	5.23303
532.831	5.70883
533.032	5.73612
533.233	6.25336
533.433	5.95807
533.634	6.21197
533.835	5.45474
534.036	5.12981
534.237	5.16242
534.438	4.69689
534.638	4.07332
534.839	4.36954
535.04	4.98256
535.241	4.33917
535.441	5.62366
535.642	4.80706
535.843	3.881
536.043	3.94834
536.244	4.0706
536.445	4.27024
536.645	5.02227
536.846	4.62793
537.047	5.22416
537.247	4.10378
537.448	4.47052
537.648	4.6653
537.849	4.67926
538.049	4.68152
538.25	5.33399
538.451	5.09302
538.651	4.1923
538.851	5.01927
539.052	5.54199
539.252	5.29579
539.453	4.597
539.653	4.66654
539.854	4.53418
540.054	4.3727
540.254	5.11096
540.455	5.55983
540.655	5.04552
540.855	5.89759
541.056	6.53429
541.256	6.04419
541.456	7.10038
541.657	6.17066
541.857	7.0896
542.057	5.68
542.257	5.48027
542.458	6.09236
542.658	5.99481
542.858	4.57863
543.058	5.54545
543.258	5.10419
543.458	4.09562
543.659	3.96752
543.859	5.23794
544.059	5.20944
544.259	4.72334
544.459	5.26649
544.659	4.43247
544.859	5.15759
545.059	4.3801
545.259	5.18455
545.459	4.89955
545.659	5.34002
545.859	4.70725
546.059	4.84005
546.259	4.17319
546.459	3.67881
546.659	3.99253
546.859	5.2189
547.059	5.01218
547.258	5.17728
547.458	5.10571
547.658	4.0304
547.858	4.23302
548.058	5.12206
548.258	4.82836
548.457	4.29809
548.657	7.15094
548.857	4.76857
549.057	5.67329
549.256	5.52662
549.456	4.98408
549.656	3.5391
549.855	6.77027
550.055	4.80422
550.255	6.78235
550.454	5.51868
550.654	6.07425
550.853	6.32546
551.053	6.01152
551.253	5.45105
551.452	5.363
551.652	4.03185
551.851	3.64423
552.051	4.77025
552.25	4.65235
552.45	4.50434
552.649	4.85381
552.849	4.3152
553.048	4.97022
553.248	5.53971
553.447	4.38435
553.646	5.89792
553.846	6.47344
554.045	6.02288
554.244	4.39171
554.444	6.94727
554.643	4.7688
554.842	6.49246
555.042	7.12669
555.241	4.9331
555.44	4.5092
555.64	5.58895
555.839	7.0855
556.038	6.06372
556.237	4.87263
556.436	5.34692
556.636	5.62648
556.835	4.69967
557.034	6.87519
557.233	5.30137
557.432	4.4011
557.631	6.4403
557.83	5.2241
558.029	4.96982
558.228	4.99922
558.427	4.39501
558.626	5.89519
558.825	4.68967
559.024	5.7259
559.223	6.96144
559.422	5.43526
559.621	5.84624
559.82	3.38102
560.019	5.45248
560.218	5.09181
560.417	2.89523
560.616	5.07344
560.815	8.42955
561.014	4.00946
561.212	6.38968
561.411	5.59846
561.61	3.90036
561.809	5.16309
562.008	6.92813
562.206	5.33424
562.405	6.13269
562.604	5.37216
562.803	5.49479
563.001	5.2761
563.2	4.08541
563.399	5.91289
563.597	4.23031
563.796	5.5013
563.995	4.24008
564.193	5.94975
564.392	4.88926
564.59	7.50873
564.789	3.54199
564.988	4.84687
565.186	5.29712
565.385	5.00486
565.583	4.66166
565.782	4.97346
565.98	4.79911
566.179	5.00866
566.377	3.99755
566.575	4.44515
566.774	6.17197
566.972	5.9344
567.171	7.0922
567.369	6.43776
567.567	5.31777
567.766	5.68286
567.964	3.4373
568.162	5.95023
568.361	6.34529
568.559	5.38106
568.757	5.85652
568.956	5.54069
569.154	5.31923
569.352	6.23581
569.55	5.31213
569.748	5.37323
569.947	4.45505
570.145	4.63795
570.343	4.19919
570.541	6.32391
570.739	3.94025
570.937	5.3741
571.135	5.61995
571.333	6.76328
571.532	6.5507
571.73	5.37958
571.928	6.11589
572.126	5.4842
572.324	4.74708
572.522	6.4033
572.72	7.68483
572.918	5.17724
573.116	5.5556
573.313	5.44701
573.511	5.28404
573.709	5.05273
573.907	5.94795
574.105	4.94499
574.303	3.76
574.501	3.91
574.699	5.43571
574.896	5.72288
575.094	5.83094
575.292	4.25015
575.49	6.15446
575.688	5.11217
575.885	6.71972
576.083	7.29293
576.281	5.79421
576.478	5.033
576.676	6.03544
576.874	4.47108
577.071	5.39156
577.269	8.1636
577.467	5.36915
577.664	5.73503
577.862	6.56055
578.059	4.80554
578.257	6.66242
578.455	5.69559
578.652	5.8092
578.85	3.87387
579.047	6.04757
579.245	5.88388
579.442	5.68112
579.64	5.99251
579.837	3.93792
580.034	8.37843
580.232	5.53667
580.429	4.77676
580.627	6.62578
580.824	7.29459
581.021	6.56061
581.219	5.53801
581.416	4.85238
581.613	7.36926
581.811	7.48934
582.008	4.9814
582.205	7.0845
582.402	6.27694
582.6	8.36853
582.797	6.16082
582.994	6.76529
583.191	6.96892
583.388	6.13908
583.586	7.00453
583.783	7.44834
583.98	5.25966
584.177	6.31657
584.374	2.7643
584.571	6.08697
584.768	5.8491
584.965	5.84672
585.162	7.25341
585.359	7.96293
585.556	6.28657
585.753	6.54167
585.95	4.71233
586.147	5.44124
586.344	6.82392
586.541	5.88158
586.738	4.81284
586.935	6.18065
587.132	5.25586
587.329	7.42903
587.526	5.97185
587.722	11.70131
587.919	4.52214
588.116	6.43233
588.313	7.88798
588.51	8.71672
588.706	5.99409
588.903	6.76153
589.1	7.28748
589.297	9.51026
589.493	6.00821
589.69	6.78085
589.887	5.43318
590.083	4.84223
590.28	5.27752
590.477	7.21695
590.673	7.01469
590.87	7.55711
591.067	6.02272
591.263	6.79579
591.46	6.92136
591.656	6.19011
591.853	8.06974
592.049	5.18478
592.246	5.61425
592.442	7.79033
592.639	7.29246
592.835	4.8693
593.032	6.87609
593.228	4.72168
593.425	4.60744
593.621	4.2964
593.817	6.4056
594.014	5.28841
594.21	6.15521
594.406	7.19432
594.603	6.57361
594.799	5.51602
594.995	3.34092
595.192	7.44084
595.388	5.33124
595.584	5.30102
595.78	4.05661
595.977	8.15646
596.173	7.83203
596.369	5.48988
596.565	4.62225
596.761	4.57431
596.957	7.13009
597.154	4.8536
597.35	5.19728
597.546	4.69338
597.742	6.44194
597.938	6.31535
598.134	4.92933
598.33	6.19116
598.526	8.09307
598.722	6.89286
598.918	8.70837
599.114	7.13721
599.31	5.35613
599.506	6.68512
599.702	5.56127
599.898	6.98179
600.094	7.91547
600.29	7.37814
600.485	7.57879
600.681	5.97128
600.877	8.66059
601.073	6.68036
601.269	9.02361
601.465	8.11011
601.66	5.32491
601.856	4.20753
602.052	8.34168
602.248	5.62336
602.443	3.58935
602.639	4.52412
602.835	4.90902
603.03	4.91282
603.226	7.06827
603.422	4.68732
603.617	5.29792
603.813	5.12249
604.009	4.96097
604.204	6.86748
604.4	3.80938
604.595	6.78463
604.791	4.42123
604.986	5.88958
605.182	4.92007
605.377	5.29484
605.573	5.18308
605.768	5.99407
605.964	6.70712
606.159	7.00356
606.355	8.04609
606.55	5.98548
606.746	7.68057
606.941	6.45317
607.136	9.0251
607.332	10.32237
607.527	4.76711
607.722	6.69061
607.918	6.27419
608.113	5.21953
608.308	6.96214
608.503	6.76471
608.699	6.62316
608.894	6.54066
609.089	4.96295
609.284	6.16249
609.479	5.33008
609.675	6.72103
609.87	5.43902
610.065	6.74388
610.26	7.4511
610.455	7.30509
610.65	6.0331
610.845	6.56437
611.04	7.8375
611.235	6.4303
611.43	6.16452
611.625	4.90107
611.82	8.47892
612.015	5.51596
612.21	8.97354
612.405	4.42919
612.6	9.51517
612.795	8.5525
612.99	8.0161
613.185	5.33525
613.38	5.78229
613.575	7.30268
613.77	10.88383
613.965	4.78053
614.159	5.63951
614.354	8.92604
614.549	8.539
614.744	8.28997
614.938	5.53933
615.133	4.81042
615.328	8.89635
615.523	9.00735
615.717	11.5469
615.912	6.31371
616.107	7.18355
616.301	6.53617
616.496	6.2097
616.691	9.95326
616.885	8.2961
617.08	10.95648
617.274	9.30151
617.469	10.79528
617.664	8.18539
617.858	6.35942
618.053	7.5843
618.247	6.8431
618.442	3.89771
618.636	9.34517
618.831	6.39913
619.025	6.51317
619.219	11.38791
619.414	2.2357
619.608	7.37775
619.803	5.9971
619.997	10.84787
620.191	9.47484
620.386	7.87815
620.58	7.75398
620.774	4.71586
620.969	4.94562
621.163	7.64877
621.357	5.67299
621.551	6.89248
621.746	7.59538
621.94	7.27852
622.134	13.58162
622.328	10.86906
622.522	4.92668
622.716	9.57842
622.911	9.22085
623.105	8.93644
623.299	8.19634
623.493	12.79313
623.687	6.41591
623.881	6.95388
624.075	8.50237
624.269	9.81047
624.463	4.75269
624.657	5.02813
624.851	8.20729
625.045	9.15284
625.239	9.12027
625.433	6.34895
625.627	9.79578
625.821	6.44476
626.015	5.92801
626.209	7.22424
626.403	4.86692
626.596	7.78011
626.79	8.39565
626.984	5.15878
627.178	7.90522
627.372	7.84327
627.565	8.49018
627.759	4.6824
627.953	5.18456
628.147	7.95827
628.34	8.476
628.534	10.81647
628.728	6.94093
628.921	9.15325
629.115	9.05245
629.309	9.15596
629.502	9.41814
629.696	8.2804
629.89	7.71508
630.083	8.12628
630.277	8.8267
630.47	11.24863
630.664	7.43935
630.857	5.56646
631.051	9.29684
631.244	10.02794
631.438	9.66019
631.631	6.7777
631.825	10.25467
632.018	9.46969
632.212	11.40099
632.405	9.8941
632.598	6.58163
632.792	8.21723
632.985	3.80103
633.178	7.16468
633.372	7.7543
633.565	8.15895
633.758	10.34822
633.952	6.51958
634.145	6.50711
634.338	7.09138
634.531	7.35497
634.724	7.01435
634.918	8.52064
635.111	7.66491
635.304	7.25449
635.497	12.29126
635.69	8.84452
635.883	10.476
636.077	5.84007
636.27	9.48578
636.463	8.53592
636.656	9.21256
636.849	7.49769
637.042	9.13417
637.235	11.66939
637.428	9.9754
637.621	9.26883
637.814	11.22879
638.007	11.68867
638.2	12.14003
638.393	13.04903
638.586	6.29902
638.778	7.85119
638.971	8.93252
639.164	12.48352
639.357	9.94605
639.55	11.73193
639.743	10.90012
639.935	10.78838
640.128	13.15897
640.321	10.52984
640.514	9.24508
640.707	14.85956
640.899	10.79094
641.092	5.87896
641.285	24.99233
641.477	5.003
641.67	14.38772
641.863	12.45576
642.055	10.35335
642.248	9.58463
642.441	8.90605
642.633	10.40227
642.826	12.43026
643.018	12.5308
643.211	14.00161
643.403	13.47301
643.596	14.61958
643.788	13.97581
643.981	8.85899
644.173	12.24027
644.366	9.60503
644.558	6.13704
644.751	12.27872
644.943	6.69195
645.135	14.16091
645.328	14.20391
645.52	12.06814
645.712	12.4559
645.905	17.88486
646.097	7.68265
646.289	10.94081
646.482	14.5187
646.674	8.90053
646.866	12.82238
647.058	11.58598
647.251	7.80404
647.443	9.04035
647.635	10.02765
647.827	7.8185
648.019	7.84859
648.211	10.29098
648.404	10.52514
648.596	13.79154
648.788	11.09192
648.98	11.3095
649.172	11.4902
649.364	11.26672
649.556	6.11462
649.748	16.72491
649.94	7.80021
650.132	11.70032
650.324	8.42109
650.516	8.56024
650.708	13.0363
650.9	7.10128
651.092	6.58152
651.284	6.68591
651.476	7.72616
651.667	11.8318
651.859	13.59229
652.051	10.25709
652.243	10.98127
652.435	8.69304
652.627	11.52411
652.818	12.03097
653.01	6.59152
653.202	8.22136
653.394	9.97001
653.585	12.09375
653.777	22.30138
653.969	14.19457
654.16	13.9614
654.352	8.32612
654.544	10.62568
654.735	13.49426
654.927	11.55011
655.118	15.20074
655.31	13.37407
655.502	13.21989
655.693	9.42951
655.885	12.62226
656.076	15.02332
656.268	11.33362
656.459	14.42315
656.651	14.50609
656.842	9.72525
657.034	9.02878
657.225	12.46666
657.416	14.18009
657.608	14.14124
657.799	10.15504
657.99	13.37625
658.182	8.20523
658.373	8.83808
658.564	11.92674
658.756	10.21407
658.947	9.73375
659.138	7.67622
659.33	8.82097
659.521	8.14246
659.712	9.59424
659.903	9.38624
660.094	8.58453
660.286	6.45631
660.477	15.50638
660.668	12.2309
660.859	10.92205
661.05	7.10051
661.241	12.67592
661.432	12.58236
661.623	10.43683
661.814	9.69328
662.006	6.93031
662.197	12.93067
662.388	14.40509
662.579	12.37247
662.77	15.75369
662.96	19.61655
663.151	14.16138
663.342	6.85691
663.533	13.93921
663.724	11.81833
663.915	16.2457
664.106	11.95971
664.297	17.49435
664.488	13.95357
664.678	10.98681
664.869	14.44902
665.06	14.61989
665.251	13.40365
665.442	13.74627
665.632	9.53745
665.823	18.50025
666.014	3.88805
666.204	14.01558
666.395	16.10667
666.586	21.22806
666.776	15.23932
666.967	18.09226
667.158	12.93657
667.348	17.27981
667.539	9.365
667.729	15.31606
667.92	10.22149
668.111	15.76969
668.301	14.5629
668.492	11.6025
668.682	12.47132
668.873	11.67574
669.063	9.1829
669.253	12.45314
669.444	15.26379
669.634	12.26193
669.825	18.24189
670.015	15.82168
670.206	10.62983
670.396	19.49391
670.586	12.23496
670.777	14.86804
670.967	6.86037
671.157	12.69051
671.347	11.19582
671.538	17.49313
671.728	14.60257
671.918	19.28721
672.108	17.06248
672.299	13.03087
672.489	14.34044
672.679	11.4976
672.869	15.77212
673.059	19.27282
673.249	14.88524
673.44	10.81197
673.63	12.79702
673.82	16.38376
674.01	11.06406
674.2	15.25267
674.39	24.18013
674.58	15.21118
674.77	14.10063
674.96	12.8136
675.15	27.52243
675.34	17.75038
675.53	14.00729
675.72	12.92027
675.91	9.47546
676.099	19.8578
676.289	21.1646
676.479	17.23414
676.669	12.53957
676.859	15.63231
677.049	10.47164
677.238	14.48408
677.428	19.93722
677.618	14.44479
677.808	16.73537
677.997	15.81255
678.187	9.70235
678.377	13.89852
678.567	12.09482
678.756	11.94917
678.946	12.49962
679.136	8.74102
679.325	10.13044
679.515	10.20612
679.704	8.78724
679.894	14.36567
680.084	13.16427
680.273	16.94609
680.463	9.86823
680.652	10.25737
680.842	12.69707
681.031	15.80889
681.221	10.39588
681.41	15.07177
681.6	12.60286
681.789	16.13756
681.978	18.19652
682.168	14.75823
682.357	15.07498
682.547	16.39686
682.736	14.322
682.925	18.76959
683.115	18.31162
683.304	17.78177
683.493	16.20989
683.682	16.5496
683.872	16.07937
684.061	19.96096
684.25	17.06381
684.439	21.23759
684.629	17.48644
684.818	28.01982
685.007	14.54797
685.196	14.50395
685.385	20.74457
685.574	17.46887
685.763	16.97943
685.952	16.0874
686.142	11.42359
686.331	20.93965
686.52	9.02688
686.709	21.69492
686.898	21.32854
687.087	18.20695
687.276	22.43681
687.465	19.45487
687.654	14.6301
687.842	21.59627
688.031	11.10259
688.22	20.17907
688.409	16.46919
688.598	16.99033
688.787	25.95956
688.976	16.06997
689.165	23.25086
689.353	14.89083
689.542	17.9315
689.731	19.18476
689.92	23.74986
690.108	20.03475
690.297	15.4572
690.486	17.80878
690.675	20.23145
690.863	24.7458
691.052	23.83811
691.241	18.88666
691.429	18.46259
691.618	23.284
691.806	13.14343
691.995	17.01233
692.184	17.78537
692.372	15.18179
692.561	17.61469
692.749	18.12093
692.938	28.15468
693.126	20.13059
693.315	16.59305
693.503	20.24793
693.692	20.78107
693.88	22.93861
694.068	27.84796
694.257	18.03002
694.445	20.20933
694.634	10.17005
694.822	22.66136
695.01	24.4935
695.199	23.53392
695.387	25.86271
695.575	24.7224
695.763	19.12105
695.952	17.05958
696.14	12.18789
696.328	15.85726
696.516	18.77518
696.705	18.90134
696.893	19.07779
697.081	10.64373
697.269	19.51646
697.457	12.88858
697.645	11.91181
697.833	19.54186
698.021	12.85873
698.21	13.65175
698.398	14.82321
698.586	11.12599
698.774	9.65715
698.962	14.22524
699.15	11.20648
699.338	10.01453
699.526	17.11611
699.714	13.47706
699.901	14.45133
700.089	20.52572
700.277	14.08695
700.465	16.40649
700.653	21.01583
700.841	19.84821
701.029	14.64723
701.217	23.33
701.404	19.36386
701.592	24.62434
701.78	27.56483
701.968	18.1522
702.155	17.44119
702.343	14.0169
702.531	26.27359
702.718	21.26548
702.906	18.95554
703.094	17.44658
703.281	25.80132
703.469	18.73378
703.657	25.15108
703.844	36.92837
704.032	27.63231
704.219	17.80456
704.407	22.88386
704.595	26.10987
704.782	21.3245
704.97	19.01071
705.157	19.45385
705.345	30.27418
705.532	33.69316
705.719	23.35975
705.907	28.5787
706.094	22.11854
706.282	30.60463
706.469	19.7515
706.656	22.00682
706.844	20.88879
707.031	26.55933
707.218	22.70766
707.406	30.60571
707.593	25.10106
707.78	24.8756
707.968	21.21635
708.155	16.97462
708.342	25.09103
708.529	24.41442
708.716	22.42834
708.904	30.66641
709.091	25.4242
709.278	16.2748
709.465	32.16989
709.652	31.50147
709.839	30.06758
710.026	23.87405
710.213	14.14218
710.4	24.1861
710.587	27.05883
710.774	27.71142
710.961	28.14805
711.148	22.35497
711.335	28.71873
711.522	21.87119
711.709	24.45967
711.896	34.27517
712.083	28.2576
712.27	18.35316
712.457	24.01859
712.644	15.79891
712.831	34.25017
713.017	23.87598
713.204	27.37698
713.391	20.41564
713.578	30.89361
713.765	30.22237
713.951	26.28464
714.138	41.83278
714.325	27.85087
714.512	24.23863
714.698	19.96487
714.885	32.75733
715.072	25.92787
715.258	24.80738
715.445	20.86954
715.631	32.4187
715.818	10.74128
716.005	20.48304
716.191	27.87733
716.378	22.78704
716.564	30.37957
716.751	19.71291
716.937	21.88177
717.124	32.50083
717.31	21.22276
717.497	34.22355
717.683	21.46996
717.869	41.59695
718.056	23.34186
718.242	29.74647
718.429	25.60681
718.615	19.61516
718.801	27.16561
718.988	32.82855
719.174	29.7503
719.36	26.6532
719.547	35.2964
719.733	29.31052
719.919	29.26139
720.105	32.27109
720.291	27.4693
720.478	28.15661
720.664	26.16918
720.85	24.79597
721.036	46.61946
721.222	36.61688
721.408	27.5702
721.595	41.82892
721.781	39.66555
721.967	35.42489
722.153	38.87838
722.339	32.28819
722.525	31.34426
722.711	22.05694
722.897	20.69504
723.083	26.11893
723.269	36.92848
723.455	45.79388
723.641	48.57559
723.827	30.4087
724.012	32.31973
724.198	26.44731
724.384	38.69677
724.57	31.79896
724.756	19.8381
724.942	16.56874
725.127	35.47752
725.313	40.16875
725.499	39.02851
725.685	41.78066
725.87	32.59063
726.056	23.51905
726.242	38.96596
726.428	18.46911
726.613	36.56679
726.799	27.68246
726.985	22.93466
727.17	20.05295
727.356	40.2505
727.541	23.83242
727.727	27.66951
727.913	34.60317
728.098	25.75676
728.284	33.91912
728.469	20.75889
728.655	23.13987
728.84	34.75476
729.026	36.13605
729.211	36.68964
729.397	31.49644
729.582	34.82867
729.767	29.61159
729.953	31.74608
730.138	36.05713
730.323	15.35899
730.509	22.29934
730.694	40.8761
730.879	32.40792
731.065	29.96682
731.25	45.98445
731.435	34.30303
731.621	19.39601
731.806	25.09082
731.991	31.5711
732.176	19.52684
732.361	39.3503
732.547	30.04563
732.732	19.11982
732.917	47.29514
733.102	21.47108
733.287	24.55998
733.472	30.47536
733.657	32.01649
733.842	19.9865
734.027	28.11905
734.212	29.85061
734.397	25.4135
734.582	31.24783
734.767	36.53817
734.952	42.68929
735.137	14.18451
735.322	42.63779
735.507	34.55992
735.692	34.62276
735.877	48.90799
736.062	46.27983
736.247	34.64271
736.431	32.16169
736.616	43.36353
736.801	33.61948
736.986	32.41965
737.171	26.76488
737.355	23.62736
737.54	41.21021
737.725	32.37602
737.909	56.23656
738.094	27.3549
738.279	39.35965
738.463	29.88071
738.648	37.16756
738.833	34.8119
739.017	48.58486
739.202	28.88564
739.386	32.40089
739.571	24.26295
739.756	37.94233
739.94	34.04719
740.125	41.00234
740.309	25.59554
740.494	40.01863
740.678	33.77406
740.863	38.10593
741.047	34.72013
741.231	44.29187
741.416	26.17817
741.6	47.63264
741.785	28.5642
741.969	40.49489
742.153	44.86002
742.338	16.91592
742.522	33.75775
742.706	41.28301
742.89	23.8496
743.075	36.26525
743.259	48.70924
743.443	41.82807
743.627	45.35557
743.812	54.90806
743.996	20.72627
744.18	34.52349
744.364	29.48289
744.548	59.90038
744.732	33.73279
744.916	41.80506
745.1	39.87694
745.285	33.41877
745.469	41.36003
745.653	52.02561
745.837	23.28586
746.021	59.53918
746.205	46.86528
746.389	37.36428
746.573	32.87624
746.757	50.67476
746.94	32.02936
747.124	48.35778
747.308	25.60767
747.492	47.9736
747.676	30.99638
747.86	58.52981
748.044	31.20993
748.227	20.10687
748.411	71.16289
748.595	38.58809
748.779	27.4331
748.963	40.4167
749.146	38.10761
749.33	30.30451
749.514	25.02866
749.697	47.2335
749.881	29.45179
750.065	27.26741
750.248	35.83813
750.432	61.1568
750.616	36.71829
750.799	24.90584
750.983	56.37853
751.166	64.47499
751.35	21.83667
751.533	48.03619
751.717	47.73702
751.9	53.34196
752.084	33.09377
752.267	27.61134
752.451	30.52849
752.634	38.99049
752.818	43.07802
753.001	45.83781
753.184	49.47201
753.368	40.68828
753.551	8.50251
753.734	29.49573
753.918	57.12298
754.101	30.65952
754.284	44.62777
754.467	32.50588
754.651	30.18546
754.834	29.78301
755.017	49.57213
755.2	46.78076
755.384	25.50529
755.567	44.46849
755.75	49.20079
755.933	35.00205
756.116	40.42164
756.299	33.36931
756.482	29.35539
756.665	43.79549
756.848	37.85863
757.032	40.41322
757.215	24.08849
757.398	29.04554
757.581	29.53419
757.764	66.65151
757.947	34.59384
758.129	50.79998
758.312	12.98062
758.495	36.63286
758.678	35.92968
758.861	34.86269
759.044	57.71056
759.227	30.4958
759.41	29.53503
759.592	42.43059
759.775	36.31847
759.958	47.75823
760.141	26.42483
760.324	62.06686
760.506	52.78664
760.689	46.06275
760.872	65.983
761.054	42.58477
761.237	33.58764
761.42	41.29076
761.602	47.26089
761.785	42.07535
761.968	46.50543
762.15	56.73876
762.333	33.79954
762.515	40.62551
762.698	30.62707
762.88	42.65207
763.063	37.30854
763.245	41.2119
763.428	25.9062
763.61	28.10087
763.793	22.27792
763.975	36.08812
764.158	29.41315
764.34	27.68845
764.522	24.22352
764.705	31.15637
764.887	45.75582
765.069	20.63947
765.252	43.97945
765.434	42.87586
765.616	36.30421
765.799	30.16605
765.981	44.39825
766.163	29.3475
766.345	47.83221
766.528	32.33182
766.71	14.94891
766.892	39.30027
767.074	50.96193
767.256	36.87751
767.438	59.84748
767.62	43.14414
767.802	66.24691
767.985	47.92776
768.167	63.73378
768.349	33.17131
768.531	47.98221
768.713	45.73411
768.895	50.3803
769.077	46.4756
769.259	71.62229
769.441	109.41306
769.623	53.2611
769.804	63.91692
769.986	60.86544
770.168	75.22715
770.35	90.09925
770.532	64.78191
770.714	71.03939
770.896	75.36148
771.077	32.32121
771.259	73.62877
771.441	59.27202
771.623	78.02851
771.804	102.18972
771.986	30.83921
772.168	50.75194
772.35	77.86529
772.531	105.05691
772.713	60.44415
772.894	84.5176
773.076	60.46814
773.258	52.29696
773.439	81.81887
773.621	91.9394
773.802	45.22258
773.984	50.22606
774.166	66.9429
774.347	90.65907
774.529	80.04493
774.71	28.43771
774.891	58.9514
775.073	53.52797
775.254	90.2924
775.436	50.54634
775.617	97.97623
775.799	52.21261
775.98	89.29699
776.161	93.92068
776.343	96.83915
776.524	62.63189
776.705	54.0561
776.886	29.82854
777.068	62.63247
777.249	119.92714
777.43	102.71893
777.611	41.6968
777.793	53.73664
777.974	95.05189
778.155	51.58912
778.336	47.56815
778.517	107.04632
778.698	47.47476
778.879	29.09236
779.061	15.98259
779.242	70.00751
779.423	72.01901
779.604	52.24595
779.785	58.24089
779.966	65.63406
780.147	82.43745
780.328	85.19626
780.509	121.19174
780.69	73.74741
780.871	49.21379
781.051	35.95081
781.232	68.60604
781.413	64.98108
781.594	57.23797
781.775	52.27812
781.956	49.82482
782.137	28.11215
782.317	51.13147
782.498	68.91782
782.679	59.1803
782.86	65.3644
783.04	49.84143
783.221	69.02872
783.402	106.18274
783.583	61.538
783.763	77.49431
783.944	53.08976
784.124	37.98145
784.305	95.84847
784.486	75.42781
784.666	58.9662
784.847	32.68551
785.027	119.05835
785.208	45.90351
785.388	48.66337
785.569	49.91208
785.749	55.43194
785.93	54.37591
786.11	33.43243
786.291	71.73958
786.471	67.3103
786.652	81.21552
786.832	60.28994
787.012	64.88369
787.193	41.51871
787.373	64.26327
787.553	54.90523
787.734	67.14242
787.914	54.52848
788.094	70.59597
788.275	68.73025
788.455	55.1156
788.635	37.46952
788.815	64.51987
788.995	42.35996
789.176	32.43636
789.356	45.82607
789.536	55.5299
789.716	73.6283
789.896	49.85497
790.076	48.65572
790.256	66.72233
790.436	23.14092
790.616	46.01984
790.796	65.68271
790.976	54.16522
791.156	45.46083
791.336	81.34277
791.516	69.87968
791.696	54.83552
791.876	34.5524
792.056	62.71822
792.236	79.21027
792.416	76.48118
792.596	72.35921
792.776	71.34202
792.956	75.35214
793.135	97.03923
793.315	44.20961
793.495	89.34424
793.675	74.99574
793.854	79.08668
794.034	82.20789
794.214	41.72045
794.394	76.23548
794.573	83.19318
794.753	63.58144
794.933	46.28382
795.112	67.49862
795.292	77.435
795.472	102.64332
795.651	37.72225
795.831	60.29977
796.01	54.92507
796.19	54.93767
796.369	58.95551
796.549	70.5166
796.728	55.01697
796.908	37.15092
797.087	40.60877
797.267	54.36903
797.446	38.31421
797.626	71.72569
797.805	73.21433
797.984	43.56684
798.164	75.41629
798.343	41.70976
798.522	68.91908
798.702	60.35846
798.881	39.4545
799.06	55.8988
799.239	26.10949
799.419	45.44366
799.598	90.74699
799.777	73.37612
799.956	88.31299
800.136	50.81546
800.315	44.89756
800.494	67.84637
800.673	83.23539
800.852	74.49172
801.031	84.41163
801.21	74.81797
801.389	55.31142
801.568	65.98937
801.747	102.16671
801.926	65.12581
802.105	97.68204
802.284	51.72727
802.463	96.89188
802.642	66.58083
802.821	67.52952
803	91.09111
803.179	78.48531
803.358	87.53487
803.537	53.56441
803.716	63.1552
803.895	52.57758
804.073	60.18273
804.252	50.09495
804.431	72.40493
804.61	60.09476
804.789	86.28358
804.967	51.72614
805.146	48.67341
805.325	104.75095
805.503	72.46099
805.682	33.34085
805.861	119.70099
806.039	87.00469
806.218	51.34597
806.397	67.30811
806.575	61.35614
806.754	66.88718
806.932	44.50972
807.111	97.2549
807.289	79.70704
807.468	65.33847
807.646	87.95444
807.825	76.44987
808.003	69.81287
808.182	86.62857
808.36	66.35316
808.539	47.19079
808.717	99.72831
808.895	47.02401
809.074	70.63328
809.252	63.5314
809.43	79.57272
809.609	90.5518
809.787	107.00785
809.965	58.26053
810.144	68.4396
810.322	60.36632
810.5	77.29391
810.678	59.6662
810.856	120.23704
811.035	92.38328
811.213	88.15268
811.391	97.04483
811.569	73.20924
811.747	142.8241
811.925	92.15061
812.103	51.84543
812.281	66.51097
812.459	111.84699
812.637	111.41988
812.816	88.23667
812.994	117.63855
813.171	96.81422
813.349	79.73537
813.527	96.62191
813.705	101.54139
813.883	126.45302
814.061	97.55399
814.239	123.7499
814.417	122.92151
814.595	76.95603
814.773	77.00212
814.95	73.83777
815.128	82.41648
815.306	70.23015
815.484	67.18995
815.662	51.94752
815.839	44.34385
816.017	54.90442
816.195	103.16605
816.372	62.28345
816.55	88.28978
816.728	107.02946
816.905	65.34859
817.083	114.55458
817.261	65.66649
817.438	121.45647
817.616	116.96106
817.793	56.86133
817.971	93.72128
818.148	88.69789
818.326	103.96933
818.503	76.12921
818.681	103.74617
818.858	60.05077
819.036	65.024
819.213	70.75356
819.391	54.02831
819.568	49.75062
819.745	45.49435
819.923	81.39093
820.1	53.01944
820.277	47.27446
820.455	56.14381
820.632	58.17638
820.809	57.50796
820.986	37.08971
821.164	29.35508
821.341	25.57549
821.518	34.37729
821.695	23.75825
821.872	22.16474
822.05	18.66057
822.227	14.47283
822.404	15.22569
822.581	18.45429
822.758	14.63029
822.935	15.2186
823.112	17.69976
823.289	13.63352
823.466	18.36236
823.643	17.08249
823.82	21.99218
823.997	20.05874
824.174	25.21456
824.351	33.84647
824.528	33.36109
824.705	30.51365
824.882	34.34454
825.059	45.904
825.236	30.20386
825.412	32.12123
825.589	41.35882
825.766	56.18552
825.943	35.55439
826.12	42.58615
826.296	27.36891
826.473	34.53262
826.65	34.66794
826.827	43.6309
827.003	27.98056
827.18	30.48019
827.357	34.87575
827.533	31.46045
827.71	16.51162
827.887	27.14769
828.063	31.75887
828.24	27.57513
828.416	38.58395
828.593	32.19003
828.769	46.87054
828.946	54.14255
829.122	56.26643
829.299	53.86065
829.475	30.58618
829.652	53.3849
829.828	93.172
830.005	58.38169
830.181	79.98409
830.357	53.04709
830.534	84.03914
830.71	61.16465
830.886	77.78162
831.063	77.15828
831.239	101.40381
831.415	43.07642
831.592	98.0165
831.768	62.74661
831.944	53.07003
832.12	97.94509
832.296	89.50213
832.473	76.89915
832.649	55.64745
832.825	70.07982
833.001	39.83764
833.177	64.35763
833.353	55.12357
833.529	29.94646
833.705	44.31774
833.881	32.91517
834.058	32.85139
834.234	34.47599
834.41	35.01654
834.586	27.12102
834.761	34.25468
834.937	38.36978
835.113	41.21345
835.289	37.7631
835.465	46.2962
835.641	39.68687
835.817	45.90027
835.993	86.5255
836.169	42.67059
836.344	64.0501
836.52	72.02435
836.696	71.18697
836.872	52.51166
837.048	143.72877
837.223	62.14134
837.399	116.06445
837.575	98.13359
837.75	90.97623
837.926	116.23045
838.102	198.79452
838.277	146.93988
838.453	188.55568
838.628	193.12366
838.804	77.73223
838.98	184.92807
839.155	84.40414
839.331	115.49447
839.506	79.78176
839.682	78.26428
839.857	101.94413
840.033	122.31665
840.208	61.76408
840.384	30.85852
840.559	63.59374
840.734	92.03138
840.91	137.46182
841.085	82.60396
841.26	83.55903
841.436	74.75416
841.611	77.2581
841.786	114.01247
841.962	158.52335
842.137	93.18495
842.312	54.44226
842.487	86.19012
842.663	66.67576
842.838	78.86968
843.013	277.22269
843.188	133.49583
843.363	127.97292
843.538	239.67787
843.714	241.69294
843.889	253.50186
844.064	254.02008
844.239	224.30295
844.414	262.66957
844.589	163.66286
844.764	323.89073
844.939	303.10799
845.114	379.13168
845.289	357.11806
845.464	383.68487
845.639	295.32428
845.814	137.90603
845.989	178.27233
846.163	196.07676
846.338	225.48707
846.513	346.90171
846.688	209.08466
846.863	204.6696
847.038	180.94676
847.212	215.14063
847.387	241.97264
847.562	253.1798
847.737	283.72072
847.911	93.7952
848.086	134.08503
848.261	425.97694
848.435	180.77257
848.61	300.49165
848.785	136.31854
848.959	314.53106
849.134	428.59497
849.308	520.41086
849.483	224.3127
849.658	354.99421
849.832	187.64584
850.007	150.90272
850.181	624.86315
850.356	174.23243
850.53	522.24679
850.705	127.24918
850.879	81.95423
851.053	198.19804
851.228	172.56282
851.402	288.00658
851.577	325.95442
851.751	424.23885
851.925	240.02943
852.099	111.26024
852.274	159.50334
852.448	207.06917
852.622	293.9962
852.797	224.58416
852.971	250.51133
853.145	241.02279
853.319	651.69347
853.493	347.04293
853.668	200.60791
853.842	431.2445
854.016	323.82402
854.19	398.66323
854.364	232.57296
854.538	261.10944
854.712	341.89454
854.886	225.72031
855.06	205.58968
855.234	72.89104
855.408	426.8223
855.582	344.99169
855.756	357.69402
855.93	448.91509
856.104	238.07181
856.278	327.49274
856.452	207.04307
856.626	300.43441
856.8	529.43862
856.973	278.5539
857.147	292.58958
857.321	284.37095
857.495	346.50763
857.669	244.3201
857.842	200.18446
858.016	333.55933
858.19	144.87467
858.364	837.58387
858.537	186.13552
858.711	246.02845
858.885	210.51602
859.058	198.49627
859.232	110.86681
859.405	125.0787
859.579	341.03558
859.753	298.81089
859.926	160.45625
860.1	104.72043
860.273	238.14554
860.447	450.42906
860.62	217.88444
860.794	477.38055
860.967	258.86384
861.141	364.03421
861.314	668.38336
861.487	295.83114
861.661	395.25416
861.834	524.57142
862.008	360.24741
862.181	231.17774
862.354	240.74282
862.528	295.32828
862.701	201.29409
862.874	132.81032
863.047	203.16564
863.221	192.13443
863.394	95.69582
863.567	374.90185
863.74	82.39591
863.913	360.09633
864.087	285.66826
864.26	323.45467
864.433	192.66254
864.606	543.60207
864.779	228.79157
864.952	116.24084
865.125	178.45025
865.298	242.62001
865.471	227.49195
865.644	503.44296
865.817	361.58705
865.99	325.08779
866.163	450.26618
866.336	189.67999
866.509	221.73598
866.682	189.30719
866.855	403.57255
867.028	131.6638
867.2	267.88371
867.373	83.68987
867.546	227.20406
867.719	586.05944
867.892	296.14693
868.064	145.56735
868.237	264.39657
868.41	262.29207
868.583	138.10052
868.755	137.78724
868.928	197.60375
869.101	583.77732
869.273	342.57135
869.446	282.16889
869.619	379.90214
869.791	216.71349
869.964	369.24743
870.136	346.30791
870.309	256.12618
870.481	239.74577
870.654	106.67443
870.826	273.55234
870.999	179.11617
871.171	274.64731
871.344	163.89533
871.516	217.99887
871.689	139.52232
871.861	224.88363
872.033	158.85503
872.206	186.37934
872.378	322.45314
872.55	181.0068
872.723	130.55256
872.895	187.35082
873.067	337.52558
873.24	332.43639
873.412	177.87633
873.584	201.02474
873.756	201.10801
873.928	244.00318
874.101	253.38174
874.273	278.16737
874.445	96.89568
874.617	129.37868
874.789	229.63714
874.961	196.09491
875.133	267.03055
875.305	208.63012
875.477	139.94892
875.649	112.94251
875.821	140.23458
875.993	400.87596
876.165	138.01545
876.337	231.50455
876.509	218.25258
876.681	241.18265
876.853	240.78419
877.025	234.96481
877.197	146.66984
877.369	125.98891
877.541	287.93358
877.712	71.78506
877.884	129.53367
878.056	249.6405
878.228	147.15781
878.4	253.13122
878.571	126.1919
878.743	91.67876
878.915	194.72596
879.086	121.18919
879.258	151.47249
879.43	128.88833
879.601	109.18689
879.773	121.97223
879.945	30.66609
880.116	45.09535
880.288	29.4425
880.459	31.99157
880.631	23.36928
880.802	27.87464
880.974	27.01372
881.145	17.34626
881.317	24.52914
881.488	17.49037
881.66	20.28625
881.831	18.37239
882.002	25.55462
882.174	18.26652
882.345	24.69077
882.517	12.86059
882.688	32.2327
882.859	25.3833
883.03	43.45091
883.202	43.66521
883.373	36.82201
883.544	36.10326
883.715	63.08587
883.887	54.7455
884.058	46.74513
884.229	68.88559
884.4	67.5911
884.571	79.32755
884.742	66.20794
884.914	71.89476
885.085	102.28991
885.256	139.67227
885.427	108.59552
885.598	140.80763
885.769	136.21615
885.94	133.46418
886.111	91.05678
886.282	162.93011
886.453	124.58536
886.624	95.30226
886.795	176.50684
886.966	135.16746
887.136	181.91386
887.307	137.6206
887.478	251.7419
887.649	194.25141
887.82	231.0904
887.991	175.32144
888.161	244.63193
888.332	224.57958
888.503	111.18514
888.674	320.39702
888.844	393.56943
889.015	280.68178
889.186	119.17016
889.356	345.37691
889.527	111.9858
889.698	582.72358
889.868	167.86164
890.039	242.98656
890.209	201.31178
890.38	285.21834
890.551	239.2834
890.721	315.98892
890.892	283.16404
891.062	189.50162
891.233	255.61185
891.403	172.47138
891.574	137.31274
891.744	190.74889
891.914	209.17849
892.085	220.51504
892.255	76.25498
892.425	362.95049
892.596	228.96219
892.766	233.17424
892.936	297.84889
893.107	262.84612
893.277	136.60509
893.447	95.52651
893.618	72.70056
893.788	162.44486
893.958	82.32524
894.128	76.0677
894.298	91.58007
894.468	121.13106
894.639	56.91412
894.809	38.70203
894.979	59.06182
895.149	71.70079
895.319	54.95588
895.489	84.42097
895.659	110.39677
895.829	70.41555
895.999	77.41891
896.169	63.1262
896.339	78.42844
896.509	166.07781
896.679	187.45013
896.849	189.39722
897.019	263.70566
897.189	203.75355
897.358	169.3288
897.528	264.27
897.698	87.34318
897.868	234.80946
898.038	461.79295
898.208	462.28178
898.377	104.15024
898.547	452.11729
898.717	653.01268
898.886	235.2672
899.056	398.65029
899.226	663.6722
899.395	329.59313
899.565	578.68024
899.735	301.45474
899.904	534.4036
900.074	557.18447
900.244	173.9286
900.413	798.97514
900.583	155.22293
900.752	299.64597
900.922	751.87249
901.091	35.82515
901.261	441.72865
901.43	399.50281
901.599	356.15595
901.769	1391.06449
901.938	552.33184
902.108	441.75783
902.277	784.31362
902.446	137.89663
902.616	156.24963
902.785	198.07348
902.954	398.83611
903.124	245.33569
903.293	180.38501
903.462	92.4015
903.631	139.58048
903.801	100.20893
903.97	52.68449
904.139	85.92797
904.308	72.8249
904.477	55.60708
904.646	32.07573
904.816	52.10155
904.985	81.81503
905.154	127.99946
