Data from WindowProjectSample_Transmission__53__00053.txt Node

Date: Sat May 03 16:49:10 EDT 2025
User: jessi
Spectrometer: SR400872
Trigger mode: 0
Integration Time (sec): 5.000010E-1
Scans to average: 6
Electric dark correction enabled: true
Nonlinearity correction enabled: true
Boxcar width: 0
XAxis mode: Wavelengths
Number of Pixels in Spectrum: 3648
>>>>>Begin Spectral Data<<<<<
184.909	178231.77882
185.132	1678.94633
185.355	-2042.01547
185.578	3315.9585
185.801	-260.88484
186.024	5919.17415
186.247	1183.31352
186.47	889.33301
186.693	-293.20828
186.916	283.90139
187.139	9997.84036
187.362	3300.97337
187.585	2866.66822
187.808	-1676.19801
188.031	-99.24681
188.254	6984.43586
188.476	460.00371
188.699	-4120.27987
188.922	-273.21377
189.145	-4074.18685
189.368	-386.68775
189.591	-850.99062
189.813	-2070.73403
190.036	4537.64253
190.259	3190.66348
190.482	2161.52202
190.705	8670.05363
190.927	-1630.77409
191.15	-1572.0581
191.373	4311.4983
191.595	-2042.92407
191.818	9215.73414
192.041	-177.96881
192.263	-2237.0691
192.486	-832.04459
192.709	9159.22045
192.931	-2519.97475
193.154	-1991.06135
193.377	4275.11398
193.599	5719.69261
193.822	-1901.0445
194.044	-1793.01604
194.267	518.37315
194.489	191.19004
194.712	2171.84169
194.934	3488.24457
195.157	-8644.08198
195.379	1965.31735
195.602	5244.87263
195.824	5440.41455
196.047	-7363.47964
196.269	-10237.67807
196.492	-1092.19484
196.714	-5081.66554
196.936	4486.72844
197.159	-2391.35139
197.381	-495.38407
197.604	993.34661
197.826	-3163.08687
198.048	-1229.37791
198.271	-12196.21329
198.493	9461.85608
198.715	-2367.45112
198.938	-833.89797
199.16	-3562.00169
199.382	1707.98469
199.604	-1266.46977
199.827	-1239.55922
200.049	-4064.55587
200.271	2339.79154
200.493	-23353.77798
200.715	4865.71483
200.938	12655.42541
201.16	-215681.34751
201.382	-5697.64413
201.604	-1031.67317
201.826	-6872.30357
202.048	-7023.24101
202.27	-4420.20434
202.492	-3752.28062
202.715	-1302.68784
202.937	-3345.02799
203.159	1084.96038
203.381	-86901.17886
203.603	-984.07113
203.825	-1412.45097
204.047	2120.72103
204.269	-824.56821
204.491	6869.03677
204.713	-9125.82655
204.935	39186.35645
205.156	2009.71624
205.378	-7853.11567
205.6	-1480.38701
205.822	6332.86356
206.044	-207.02259
206.266	-2015.74224
206.488	759.32385
206.71	-484255.34544
206.932	-14903.74485
207.153	10313.71912
207.375	-2204.52462
207.597	14964.10363
207.819	1656.72451
208.041	6553.52161
208.262	708.70195
208.484	-921.50913
208.706	-877.55185
208.927	10084.10868
209.149	-8637.91566
209.371	-2655.68966
209.593	-2082.72707
209.814	-3763.81247
210.036	2201.82702
210.258	-595.92409
210.479	1868.07087
210.701	767.03537
210.922	4151.71601
211.144	-1476.31351
211.366	5625.94788
211.587	-518.71149
211.809	-3479.97367
212.03	-2309.86025
212.252	-443.14847
212.473	2348.79561
212.695	-820.6009
212.916	-825.91695
213.138	588.97165
213.359	-1150.64751
213.581	-2997.35407
213.802	-1145.79138
214.024	10678.34249
214.245	-933.33463
214.466	-217.83573
214.688	-3489.10903
214.909	-684.67993
215.131	9054.99336
215.352	-1092.3574
215.573	-249685.80878
215.795	4694.92183
216.016	-3828.3999
216.237	-628.24342
216.459	-11229.96243
216.68	-1573.43929
216.901	-1672.60593
217.122	1594.37764
217.344	-8343.78931
217.565	-1611.42337
217.786	22407.61635
218.007	954.98295
218.228	-3743.67998
218.45	-5847.66901
218.671	-1573.48355
218.892	887.34027
219.113	1684.43671
219.334	367.29505
219.555	-6129.85366
219.776	35545.46009
219.997	-6914.25492
220.219	-9789.05242
220.44	-4721.95002
220.661	-1084.56094
220.882	12206.98945
221.103	-802.28344
221.324	2351.40556
221.545	-6685.40996
221.766	-1431.55754
221.987	-438.90497
222.208	1686.37147
222.429	6538.83446
222.65	-107.23523
222.87	-675.46522
223.091	36270.64125
223.312	817.6724
223.533	-2116.73357
223.754	3492.52188
223.975	1730.04176
224.196	-751.01429
224.417	-29084.12034
224.637	-2371.06665
224.858	59.10029
225.079	3799.00845
225.3	1535.18508
225.521	3598.85811
225.741	-2548.09956
225.962	1595.5351
226.183	893.05918
226.404	1812.5974
226.624	1830.44849
226.845	1231.86795
227.066	2330.56377
227.286	605.70432
227.507	383.60168
227.728	386.36346
227.948	529.89999
228.169	121.98621
228.389	122.87515
228.61	54.15903
228.831	82.45391
229.051	8.34651
229.272	46.18178
229.492	61.79632
229.713	20.74737
229.933	51.76575
230.154	38.00281
230.374	67.37869
230.595	53.43408
230.815	36.45427
231.036	50.66518
231.256	-7.61072
231.477	104.45118
231.697	63.11627
231.917	58.75896
232.138	81.08033
232.358	171.66018
232.579	172.93567
232.799	29.37144
233.019	159.14576
233.24	242.01034
233.46	61.31963
233.68	102.1047
233.901	84.39075
234.121	40.30298
234.341	16.89156
234.561	-4.60992
234.782	35.88905
235.002	114.70207
235.222	-3.63116
235.442	90.80798
235.662	41.27659
235.883	106.4632
236.103	83.18155
236.323	69.72835
236.543	52.12115
236.763	67.99713
236.983	66.42524
237.203	71.18442
237.423	107.63896
237.643	150.14486
237.864	138.60448
238.084	31.75694
238.304	51.23477
238.524	88.66715
238.744	63.59154
238.964	105.88218
239.184	100.3078
239.404	101.44189
239.624	50.32726
239.843	95.90813
240.063	49.6406
240.283	32.96967
240.503	34.46419
240.723	31.86342
240.943	16.90777
241.163	26.15098
241.383	19.40359
241.603	9.87114
241.822	11.92165
242.042	7.77802
242.262	10.45888
242.482	11.1311
242.702	13.77929
242.921	4.85355
243.141	9.56988
243.361	8.75042
243.581	13.19713
243.8	10.06435
244.02	6.72688
244.24	13.51093
244.459	13.44105
244.679	26.83837
244.899	16.52648
245.118	20.39243
245.338	15.57808
245.558	20.92297
245.777	11.90934
245.997	13.49014
246.216	13.45225
246.436	8.02441
246.655	5.23518
246.875	4.05428
247.094	7.32833
247.314	2.44648
247.533	4.07549
247.753	5.72702
247.972	4.56504
248.192	1.71702
248.411	2.80059
248.631	5.10438
248.85	6.64707
249.07	4.84244
249.289	8.36286
249.508	6.77934
249.728	10.03287
249.947	11.40457
250.166	11.75153
250.386	6.21328
250.605	9.99453
250.824	14.42038
251.044	10.67394
251.263	35.86739
251.482	19.05422
251.701	16.38406
251.921	-0.14225
252.14	5.13404
252.359	5.35858
252.578	13.79863
252.798	4.46713
253.017	12.53196
253.236	6.91822
253.455	7.54694
253.674	16.0029
253.893	7.68562
254.112	9.94729
254.331	16.04609
254.551	14.82539
254.77	7.33101
254.989	21.09637
255.208	19.02655
255.427	21.57281
255.646	18.91666
255.865	31.70722
256.084	11.65889
256.303	15.0385
256.522	20.38016
256.741	4.98393
256.96	5.35985
257.179	11.46085
257.397	15.89724
257.616	8.36868
257.835	8.86241
258.054	21.17969
258.273	13.39179
258.492	15.08197
258.711	8.71761
258.93	3.94286
259.148	4.803
259.367	5.35047
259.586	6.83175
259.805	3.2335
260.023	6.73463
260.242	4.9951
260.461	3.45476
260.68	2.18642
260.898	6.08234
261.117	1.96205
261.336	1.42578
261.554	5.42987
261.773	5.08126
261.992	0.71456
262.21	4.95263
262.429	5.59412
262.648	10.13805
262.866	12.08751
263.085	7.40558
263.303	7.01233
263.522	12.27354
263.74	13.64118
263.959	20.95955
264.178	10.65657
264.396	9.13176
264.615	7.09713
264.833	17.01807
265.051	14.17888
265.27	14.06885
265.488	15.82431
265.707	9.86035
265.925	15.60569
266.144	6.97089
266.362	8.77815
266.58	8.79467
266.799	6.80512
267.017	8.14734
267.235	7.22231
267.454	4.27466
267.672	2.57671
267.89	5.93806
268.109	6.41127
268.327	6.11104
268.545	1.22701
268.763	5.79261
268.982	2.76538
269.2	6.60086
269.418	3.82774
269.636	3.16051
269.854	6.16108
270.073	4.93183
270.291	2.49007
270.509	2.7106
270.727	5.74753
270.945	10.11752
271.163	9.47129
271.381	2.46158
271.599	3.73951
271.817	6.96079
272.036	2.40009
272.254	4.05879
272.472	3.50682
272.69	3.11821
272.908	3.18256
273.126	5.60473
273.344	7.14971
273.562	2.65741
273.779	3.66073
273.997	5.11779
274.215	6.04839
274.433	4.55241
274.651	6.12073
274.869	6.75801
275.087	3.65498
275.305	5.58743
275.523	3.30381
275.74	4.43979
275.958	7.88414
276.176	10.46916
276.394	3.42695
276.612	4.37435
276.829	4.39902
277.047	3.39845
277.265	4.16242
277.483	5.16191
277.7	5.86585
277.918	4.80611
278.136	8.67671
278.353	4.30083
278.571	1.80673
278.789	6.69759
279.006	1.33854
279.224	3.87486
279.442	7.20183
279.659	4.63794
279.877	3.11364
280.094	7.40376
280.312	1.52566
280.529	4.19858
280.747	1.28838
280.964	3.73607
281.182	8.12629
281.399	3.97511
281.617	5.13917
281.834	3.73532
282.052	3.14397
282.269	4.10553
282.487	3.07758
282.704	2.64066
282.921	3.35428
283.139	4.1932
283.356	5.98043
283.574	5.08735
283.791	2.36677
284.008	7.18018
284.226	3.69761
284.443	4.32785
284.66	5.58152
284.877	4.81314
285.095	2.93405
285.312	2.17583
285.529	1.53197
285.746	1.28665
285.964	2.77511
286.181	1.86336
286.398	2.56345
286.615	3.67665
286.832	3.52477
287.05	1.14489
287.267	2.40082
287.484	2.78555
287.701	3.62301
287.918	3.65573
288.135	3.7391
288.352	1.60004
288.569	2.22517
288.786	3.36794
289.003	2.47757
289.22	3.85949
289.437	2.71572
289.654	3.68429
289.871	4.16886
290.088	4.21216
290.305	3.17768
290.522	2.5299
290.739	3.02048
290.956	4.11604
291.173	5.22156
291.39	4.64586
291.607	3.05482
291.824	2.4832
292.04	1.75045
292.257	3.95952
292.474	4.51593
292.691	2.86423
292.908	1.31694
293.125	2.55356
293.341	1.57522
293.558	6.74166
293.775	2.68069
293.992	2.77024
294.208	1.08072
294.425	1.59333
294.642	2.38597
294.858	3.7991
295.075	0.87097
295.292	2.81559
295.508	3.1971
295.725	5.06189
295.942	2.42604
296.158	1.58508
296.375	2.89116
296.591	2.19426
296.808	2.32857
297.024	2.56552
297.241	2.83084
297.458	3.20253
297.674	0.34269
297.891	2.45318
298.107	1.78365
298.323	1.54328
298.54	3.76095
298.756	1.80808
298.973	0.73683
299.189	4.10674
299.406	1.40357
299.622	3.9555
299.838	3.88119
300.055	3.78702
300.271	0.83048
300.487	1.50518
300.704	1.49166
300.92	1.10922
301.136	5.42617
301.353	3.70056
301.569	2.69077
301.785	3.03678
302.001	3.86193
302.218	3.21981
302.434	2.97322
302.65	0.99308
302.866	2.38002
303.083	5.14165
303.299	4.97889
303.515	2.91237
303.731	2.91093
303.947	1.01432
304.163	1.48078
304.379	2.91688
304.595	3.40425
304.812	1.83717
305.028	1.59559
305.244	2.18191
305.46	3.76651
305.676	3.7884
305.892	4.44473
306.108	2.72364
306.324	2.18719
306.54	4.97765
306.756	3.52209
306.972	3.41076
307.187	2.28944
307.403	4.71665
307.619	2.03625
307.835	3.92708
308.051	4.84453
308.267	0.96405
308.483	4.05694
308.699	3.26781
308.914	2.85776
309.13	2.47249
309.346	0.68936
309.562	1.54109
309.778	0.96271
309.993	3.28822
310.209	2.54372
310.425	1.05592
310.641	2.25762
310.856	1.27771
311.072	1.17502
311.288	2.43627
311.503	2.64972
311.719	0.40836
311.935	0.41202
312.15	2.86377
312.366	2.53895
312.581	3.36594
312.797	2.58251
313.013	3.24459
313.228	1.81849
313.444	2.74886
313.659	1.89637
313.875	3.03463
314.09	2.35485
314.306	3.93437
314.521	3.43416
314.737	3.43476
314.952	3.07741
315.168	2.26161
315.383	3.38978
315.599	2.26537
315.814	1.97009
316.029	3.60455
316.245	1.08643
316.46	0.93195
316.675	4.43756
316.891	5.15738
317.106	6.22319
317.321	3.65506
317.537	3.39725
317.752	3.39464
317.967	3.49804
318.183	1.87529
318.398	2.32568
318.613	3.99581
318.828	4.64972
319.043	3.7502
319.259	2.22898
319.474	3.13266
319.689	4.02123
319.904	0.61404
320.119	3.39019
320.334	3.09743
320.549	2.48285
320.765	4.02434
320.98	3.06786
321.195	3.71873
321.41	2.53129
321.625	3.48312
321.84	4.94416
322.055	4.96048
322.27	2.03385
322.485	1.26143
322.7	2.72802
322.915	4.18004
323.13	1.92819
323.345	4.81884
323.56	3.66235
323.775	3.43759
323.989	3.49396
324.204	2.85328
324.419	3.56662
324.634	1.16154
324.849	2.38952
325.064	5.79531
325.279	3.97995
325.493	3.47011
325.708	4.08774
325.923	1.64999
326.138	1.71427
326.352	4.59941
326.567	3.78712
326.782	2.19312
326.997	1.81333
327.211	3.35236
327.426	3.23942
327.641	2.31035
327.855	0.88528
328.07	3.31731
328.285	4.6085
328.499	2.33207
328.714	3.30759
328.928	3.94382
329.143	3.28631
329.358	3.94258
329.572	3.81858
329.787	4.28344
330.001	5.88843
330.216	0.93298
330.43	4.80311
330.645	4.79178
330.859	3.80158
331.074	2.09283
331.288	3.02793
331.503	4.33648
331.717	1.19518
331.931	2.64833
332.146	2.8245
332.36	4.87672
332.575	3.54549
332.789	2.84433
333.003	2.63457
333.218	3.71427
333.432	2.38829
333.646	3.51132
333.86	4.75484
334.075	4.74652
334.289	2.34991
334.503	1.63079
334.717	3.75208
334.932	3.56425
335.146	5.01587
335.36	2.43818
335.574	3.76928
335.788	3.44515
336.003	4.12102
336.217	3.86162
336.431	3.64465
336.645	2.19421
336.859	1.36832
337.073	2.54614
337.287	2.8901
337.501	1.51914
337.715	2.99666
337.929	3.65148
338.143	1.5115
338.357	2.89682
338.571	1.53267
338.785	3.48376
338.999	2.16677
339.213	2.3043
339.427	1.07751
339.641	4.03468
339.855	2.58962
340.069	2.0731
340.283	3.67835
340.497	4.97587
340.711	3.0857
340.924	2.23723
341.138	1.57295
341.352	1.12116
341.566	3.23043
341.78	0.86914
341.993	2.15353
342.207	1.5907
342.421	2.96082
342.635	2.86481
342.848	1.96762
343.062	0.33501
343.276	2.02665
343.49	5.34551
343.703	1.92748
343.917	3.49829
344.131	3.75109
344.344	1.77136
344.558	1.93573
344.771	1.77307
344.985	4.21452
345.199	4.39024
345.412	2.92504
345.626	2.89829
345.839	0.86471
346.053	1.37028
346.266	1.37081
346.48	3.67717
346.693	2.99184
346.907	3.31806
347.12	1.76127
347.334	2.99008
347.547	2.9477
347.76	2.43943
347.974	4.02371
348.187	3.00739
348.401	2.07582
348.614	2.11692
348.827	2.10417
349.041	3.46945
349.254	0.91695
349.467	2.24994
349.681	1.11415
349.894	1.79361
350.107	4.21801
350.32	4.296
350.534	0.58695
350.747	1.99727
350.96	1.54613
351.173	1.91655
351.386	2.28547
351.6	1.97987
351.813	1.74044
352.026	2.60505
352.239	1.25163
352.452	1.99
352.665	3.51893
352.878	2.2705
353.092	5.05954
353.305	3.07353
353.518	2.97577
353.731	1.55009
353.944	4.12544
354.157	1.76985
354.37	1.41236
354.583	1.102
354.796	0.89851
355.009	3.6499
355.222	2.37832
355.435	2.43164
355.647	3.63569
355.86	1.35178
356.073	2.07715
356.286	1.83782
356.499	3.11816
356.712	2.51279
356.925	2.78287
357.138	3.39494
357.35	1.34438
357.563	2.00781
357.776	2.51565
357.989	1.88928
358.201	2.78331
358.414	2.29129
358.627	3.54533
358.84	1.96184
359.052	1.22389
359.265	1.20527
359.478	3.45084
359.69	-0.55846
359.903	2.76318
360.116	3.14409
360.328	0.54062
360.541	3.22954
360.753	1.16587
360.966	1.49889
361.179	1.66662
361.391	1.62094
361.604	1.10785
361.816	1.51148
362.029	1.32746
362.241	1.22807
362.454	1.52373
362.666	1.26777
362.879	2.06166
363.091	1.76971
363.304	1.25743
363.516	1.91276
363.728	0.87774
363.941	2.54758
364.153	1.46384
364.366	0.10582
364.578	0.91952
364.79	2.57683
365.003	2.05248
365.215	1.76451
365.427	2.40349
365.639	3.28634
365.852	2.53367
366.064	4.09444
366.276	1.47202
366.488	2.45343
366.701	1.49122
366.913	1.7346
367.125	1.60714
367.337	1.46163
367.549	1.61599
367.762	2.03561
367.974	2.22228
368.186	1.50586
368.398	3.18418
368.61	2.65092
368.822	2.74716
369.034	2.18137
369.246	2.89619
369.458	4.58699
369.67	1.11734
369.882	3.89642
370.094	0.08412
370.306	3.93684
370.518	1.72258
370.73	1.06291
370.942	1.26022
371.154	1.71173
371.366	1.52373
371.578	2.5108
371.79	1.33882
372.002	3.22796
372.214	3.91796
372.425	2.19898
372.637	3.29939
372.849	1.9145
373.061	-0.08621
373.273	2.45142
373.484	2.56007
373.696	2.95332
373.908	-0.05249
374.12	3.07645
374.331	2.67595
374.543	1.27749
374.755	1.14883
374.967	2.18751
375.178	3.03172
375.39	1.97158
375.602	2.32067
375.813	0.94234
376.025	0.71428
376.236	1.92239
376.448	2.07591
376.66	1.75621
376.871	1.81459
377.083	3.0553
377.294	3.41193
377.506	1.64252
377.717	3.21326
377.929	2.30355
378.14	1.41739
378.352	2.47698
378.563	2.68387
378.775	3.29425
378.986	1.16845
379.197	1.97308
379.409	1.70027
379.62	2.86505
379.832	2.35865
380.043	1.92296
380.254	2.12227
380.466	0.85345
380.677	4.70645
380.888	4.37758
381.1	4.50344
381.311	4.55367
381.522	2.41273
381.733	5.0944
381.945	2.10289
382.156	2.19146
382.367	1.68918
382.578	5.1554
382.789	4.94656
383.001	1.79715
383.212	3.57162
383.423	3.94932
383.634	3.42346
383.845	2.86295
384.056	1.81406
384.267	2.28784
384.478	2.19739
384.69	1.09924
384.901	2.8989
385.112	2.77045
385.323	3.80461
385.534	2.79424
385.745	3.0305
385.956	2.78629
386.167	1.3423
386.378	2.83104
386.588	1.60378
386.799	1.55247
387.01	0.89382
387.221	3.30793
387.432	2.3351
387.643	4.1283
387.854	2.10895
388.065	2.22038
388.275	2.12191
388.486	2.13119
388.697	2.47063
388.908	2.24748
389.119	3.65988
389.329	4.05061
389.54	2.69046
389.751	3.03411
389.962	3.84045
390.172	2.61133
390.383	2.42795
390.594	1.93493
390.804	1.95188
391.015	2.22745
391.226	2.88258
391.436	3.24929
391.647	3.12194
391.858	3.23277
392.068	1.15294
392.279	1.88319
392.489	2.94884
392.7	3.62991
392.91	2.16946
393.121	2.35275
393.331	3.36648
393.542	3.89184
393.752	3.4787
393.963	3.23306
394.173	3.22024
394.384	3.60921
394.594	2.98934
394.804	1.87894
395.015	2.85574
395.225	3.61158
395.436	2.16096
395.646	3.53209
395.856	2.56739
396.067	1.90649
396.277	4.09144
396.487	3.56878
396.697	3.55499
396.908	4.05226
397.118	3.78691
397.328	3.46966
397.538	4.13603
397.749	2.69298
397.959	4.02919
398.169	3.81961
398.379	2.18395
398.589	3.46981
398.8	3.67493
399.01	3.41571
399.22	3.2032
399.43	5.44859
399.64	3.24311
399.85	4.06741
400.06	3.63778
400.27	2.95453
400.48	3.43008
400.69	4.69478
400.9	3.1129
401.11	2.75846
401.32	4.50771
401.53	3.11183
401.74	4.98042
401.95	4.27471
402.16	3.14505
402.37	4.0071
402.58	3.40138
402.79	4.32859
403	4.4671
403.209	3.29878
403.419	4.64165
403.629	3.30974
403.839	4.80456
404.049	4.58231
404.258	3.5309
404.468	3.52626
404.678	4.67861
404.888	5.11066
405.097	4.00393
405.307	4.02996
405.517	4.55855
405.727	4.67553
405.936	3.76416
406.146	4.68802
406.356	5.39995
406.565	4.33464
406.775	3.79848
406.984	3.97343
407.194	6.1115
407.404	4.43771
407.613	4.72277
407.823	5.3056
408.032	5.46224
408.242	5.40025
408.451	4.2165
408.661	4.30897
408.87	6.02757
409.08	3.98456
409.289	4.75217
409.499	4.69915
409.708	4.49105
409.918	2.94407
410.127	4.77821
410.336	6.09881
410.546	5.42051
410.755	4.35684
410.964	4.50533
411.174	3.87457
411.383	5.23
411.592	5.00878
411.802	3.96681
412.011	5.72738
412.22	4.69585
412.429	5.89334
412.639	6.23327
412.848	5.94621
413.057	6.35604
413.266	5.84476
413.475	5.06997
413.685	5.75065
413.894	5.86259
414.103	5.83206
414.312	5.81167
414.521	4.60643
414.73	5.29853
414.939	7.07095
415.148	5.57634
415.357	5.56446
415.566	5.11795
415.776	5.08912
415.985	4.98902
416.194	6.12127
416.403	7.18764
416.611	4.31986
416.82	5.0017
417.029	5.67228
417.238	5.04461
417.447	5.04912
417.656	5.55326
417.865	5.087
418.074	5.42151
418.283	5.74203
418.492	6.65559
418.7	6.34306
418.909	7.37491
419.118	6.12393
419.327	6.62426
419.536	6.12577
419.744	5.99315
419.953	7.29002
420.162	7.26195
420.371	6.38945
420.579	6.65555
420.788	7.75291
420.997	7.88179
421.205	8.0891
421.414	7.70391
421.623	7.91559
421.831	7.42949
422.04	8.05563
422.249	7.21531
422.457	7.54073
422.666	7.01388
422.874	8.05025
423.083	7.96656
423.291	7.76136
423.5	7.88061
423.708	8.00888
423.917	8.52728
424.125	7.93365
424.334	7.62373
424.542	9.57719
424.751	8.96462
424.959	8.46573
425.167	8.88157
425.376	8.72711
425.584	7.68599
425.793	7.79862
426.001	6.65944
426.209	7.74819
426.418	6.57705
426.626	6.69329
426.834	6.54458
427.042	7.01568
427.251	6.47938
427.459	7.61013
427.667	6.91171
427.875	5.88589
428.084	6.27593
428.292	7.74966
428.5	7.24826
428.708	5.86706
428.916	5.81544
429.124	6.64626
429.333	6.51742
429.541	6.62071
429.749	6.61128
429.957	6.81234
430.165	8.77981
430.373	5.49517
430.581	6.71772
430.789	7.79012
430.997	6.81271
431.205	6.15208
431.413	6.97493
431.621	6.53051
431.829	7.26436
432.037	6.75132
432.245	6.89488
432.453	7.20161
432.661	6.73759
432.869	8.43788
433.076	6.42357
433.284	6.9152
433.492	7.7843
433.7	7.99424
433.908	6.93693
434.116	7.22054
434.323	7.46811
434.531	7.18547
434.739	7.73287
434.947	7.65064
435.154	8.03198
435.362	7.29732
435.57	7.19805
435.778	6.67023
435.985	7.3925
436.193	6.68835
436.401	8.20422
436.608	7.1655
436.816	6.85384
437.023	8.53185
437.231	8.59168
437.439	7.29402
437.646	7.88578
437.854	7.56434
438.061	7.86681
438.269	7.24224
438.476	7.83697
438.684	7.44334
438.891	7.06191
439.099	7.02254
439.306	6.52727
439.514	6.70352
439.721	7.75097
439.929	6.95308
440.136	7.7487
440.343	7.66706
440.551	7.43575
440.758	9.31443
440.965	8.06301
441.173	7.80259
441.38	7.33757
441.587	7.97989
441.795	7.56359
442.002	7.71154
442.209	7.93393
442.416	8.1056
442.624	8.30695
442.831	7.95094
443.038	7.38507
443.245	6.92331
443.452	7.43266
443.66	8.05121
443.867	7.30214
444.074	7.01836
444.281	7.05385
444.488	7.1482
444.695	7.52918
444.902	7.25929
445.109	8.0159
445.316	7.35898
445.523	7.51014
445.73	7.50238
445.937	8.25059
446.144	8.92557
446.351	9.27047
446.558	8.05807
446.765	9.90768
446.972	9.42785
447.179	8.8642
447.386	9.57964
447.593	8.02505
447.8	9.15602
448.007	7.96321
448.214	8.04691
448.42	7.5813
448.627	8.88675
448.834	7.79459
449.041	7.76082
449.248	7.67182
449.454	8.32636
449.661	9.06986
449.868	7.60939
450.075	7.29177
450.281	6.51368
450.488	6.79834
450.695	7.01344
450.901	7.06492
451.108	7.17229
451.315	8.42872
451.521	7.19292
451.728	8.4223
451.935	7.00428
452.141	7.37028
452.348	7.60416
452.554	7.50022
452.761	7.17744
452.967	8.96846
453.174	7.81225
453.38	7.85823
453.587	6.77386
453.793	7.67415
454	8.09459
454.206	9.37734
454.413	8.47143
454.619	8.25839
454.825	7.09665
455.032	8.20757
455.238	8.41102
455.445	6.6324
455.651	7.76638
455.857	6.21364
456.064	7.50661
456.27	7.37907
456.476	7.38638
456.682	6.5254
456.889	7.78853
457.095	7.97604
457.301	9.38906
457.507	7.58594
457.714	7.62949
457.92	7.69916
458.126	7.01085
458.332	7.54309
458.538	7.32482
458.744	7.38364
458.951	7.37312
459.157	8.90153
459.363	7.86902
459.569	8.18243
459.775	8.82752
459.981	8.45084
460.187	8.90992
460.393	9.16254
460.599	9.60376
460.805	8.51298
461.011	8.28923
461.217	9.11161
461.423	9.23634
461.629	8.12706
461.835	8.80923
462.041	8.11225
462.247	9.42562
462.453	7.95687
462.658	7.82448
462.864	8.41476
463.07	8.18541
463.276	7.94272
463.482	7.94692
463.688	9.02584
463.893	7.16636
464.099	7.53906
464.305	8.97841
464.511	7.3962
464.716	7.64665
464.922	8.58171
465.128	7.16263
465.333	8.88588
465.539	8.29543
465.745	8.01703
465.95	7.95928
466.156	10.18045
466.362	8.80089
466.567	7.87238
466.773	7.71994
466.978	9.00157
467.184	7.0062
467.389	6.51279
467.595	8.07767
467.8	7.32772
468.006	8.99708
468.211	8.83587
468.417	6.98988
468.622	8.16245
468.828	8.34994
469.033	8.2183
469.239	10.20698
469.444	7.51807
469.649	8.58882
469.855	7.81022
470.06	7.97279
470.266	7.081
470.471	8.4056
470.676	8.22628
470.881	6.39006
471.087	9.09111
471.292	9.62636
471.497	6.96096
471.703	7.88952
471.908	7.63259
472.113	7.91485
472.318	8.59926
472.523	7.15463
472.729	8.23856
472.934	8.34883
473.139	7.8253
473.344	8.13871
473.549	9.09224
473.754	7.47069
473.959	9.94761
474.164	7.50967
474.369	7.67197
474.575	8.5406
474.78	8.17609
474.985	7.60729
475.19	6.52128
475.395	7.38239
475.6	7.68249
475.804	8.95194
476.009	8.03099
476.214	7.81873
476.419	7.57648
476.624	6.7801
476.829	7.44458
477.034	8.51985
477.239	7.50835
477.444	8.56499
477.648	8.67019
477.853	8.61945
478.058	7.92124
478.263	7.74607
478.468	7.46188
478.672	7.70161
478.877	9.39488
479.082	9.4759
479.287	8.48087
479.491	8.11341
479.696	7.4009
479.901	8.96798
480.105	8.68645
480.31	7.5664
480.515	8.19228
480.719	9.88816
480.924	7.71506
481.128	7.42308
481.333	8.40187
481.538	8.42076
481.742	8.04469
481.947	8.77882
482.151	9.53138
482.356	9.96627
482.56	12.05448
482.765	13.1302
482.969	15.96666
483.174	17.86837
483.378	20.98967
483.582	21.58053
483.787	23.45555
483.991	23.70253
484.196	24.09756
484.4	23.71146
484.604	23.99007
484.809	21.79845
485.013	20.92676
485.217	18.9014
485.422	17.01214
485.626	15.27871
485.83	14.33054
486.034	13.7567
486.239	14.03175
486.443	13.92243
486.647	14.48425
486.851	15.59146
487.055	16.73661
487.26	16.7599
487.464	17.59987
487.668	16.79904
487.872	17.17935
488.076	18.00078
488.28	17.10546
488.484	15.88391
488.688	15.84268
488.892	14.79661
489.096	13.8489
489.3	12.64797
489.504	11.89622
489.708	11.4107
489.912	11.14866
490.116	10.79718
490.32	10.38484
490.524	11.28811
490.728	11.97112
490.932	12.36942
491.136	13.25396
491.34	14.42017
491.544	15.089
491.748	14.68377
491.951	14.78139
492.155	14.49003
492.359	14.18717
492.563	12.71305
492.767	12.20349
492.97	10.72638
493.174	9.57885
493.378	9.27161
493.582	8.89756
493.785	9.11966
493.989	9.32746
494.193	9.15821
494.396	8.52339
494.6	9.15643
494.804	8.44088
495.007	8.13985
495.211	8.3274
495.414	8.26925
495.618	8.654
495.822	9.24283
496.025	8.33589
496.229	9.00578
496.432	8.05918
496.636	8.53713
496.839	8.42835
497.043	9.33903
497.246	8.76357
497.45	8.4657
497.653	8.52018
497.856	8.85325
498.06	8.18134
498.263	8.58933
498.467	8.53104
498.67	9.34033
498.873	8.92712
499.077	8.34893
499.28	8.6611
499.483	8.83962
499.686	9.2867
499.89	8.6326
500.093	9.25801
500.296	7.81626
500.499	9.69835
500.703	8.48257
500.906	8.81346
501.109	9.79796
501.312	8.60181
501.515	8.52432
501.719	8.70827
501.922	9.22608
502.125	8.32173
502.328	8.40682
502.531	7.72822
502.734	8.35669
502.937	7.12846
503.14	8.55504
503.343	7.81633
503.546	8.30236
503.749	7.92863
503.952	8.89243
504.155	7.87568
504.358	8.84902
504.561	8.7284
504.764	7.60542
504.967	8.49735
505.17	8.44862
505.373	9.7722
505.576	8.49843
505.778	8.99002
505.981	7.84326
506.184	9.39146
506.387	7.24236
506.59	9.93089
506.793	9.22225
506.995	8.6758
507.198	7.05735
507.401	8.8037
507.604	8.86006
507.806	7.66119
508.009	8.03191
508.212	8.91202
508.414	7.97181
508.617	8.18339
508.82	8.54359
509.022	9.68904
509.225	8.74373
509.427	7.47636
509.63	9.56792
509.833	8.45474
510.035	8.31234
510.238	7.53732
510.44	9.41749
510.643	7.36474
510.845	10.01186
511.048	8.99849
511.25	8.33473
511.453	8.54477
511.655	8.73315
511.858	8.26904
512.06	9.19397
512.262	8.70802
512.465	9.38301
512.667	8.5498
512.869	7.90471
513.072	9.03118
513.274	9.37628
513.476	8.97406
513.679	9.28501
513.881	7.9496
514.083	9.79361
514.286	8.04132
514.488	8.0073
514.69	7.79701
514.892	7.47139
515.094	8.91636
515.297	8.08275
515.499	8.57749
515.701	7.68265
515.903	9.90722
516.105	9.98004
516.307	8.96454
516.509	7.1472
516.711	7.75743
516.913	8.53283
517.116	8.52852
517.318	8.14182
517.52	9.23591
517.722	8.99241
517.924	7.81538
518.126	8.94031
518.328	8.19645
518.529	9.07108
518.731	10.04749
518.933	8.45552
519.135	8.83509
519.337	9.65343
519.539	9.33903
519.741	7.75063
519.943	8.83508
520.145	8.74125
520.346	9.44378
520.548	8.72014
520.75	8.96568
520.952	8.4433
521.153	8.98643
521.355	9.18997
521.557	8.16231
521.759	8.6754
521.96	8.46728
522.162	7.79674
522.364	9.23215
522.565	8.05417
522.767	9.19656
522.969	9.34188
523.17	8.92645
523.372	8.5634
523.573	8.33758
523.775	8.48438
523.977	7.87839
524.178	9.74649
524.38	8.16093
524.581	9.07853
524.783	8.20494
524.984	9.06882
525.186	8.62913
525.387	8.98029
525.589	8.7937
525.79	8.50859
525.991	8.29916
526.193	9.15891
526.394	8.20014
526.596	9.36677
526.797	9.69177
526.998	9.21917
527.2	9.57517
527.401	11.7039
527.602	12.37497
527.803	14.66562
528.005	15.49625
528.206	16.93914
528.407	17.7715
528.608	17.92726
528.81	18.44327
529.011	17.73732
529.212	18.59309
529.413	17.19834
529.614	16.22205
529.815	15.4911
530.017	14.11805
530.218	12.43151
530.419	11.01799
530.62	10.60223
530.821	9.85179
531.022	8.59213
531.223	9.72155
531.424	9.62013
531.625	9.39701
531.826	9.13269
532.027	9.51696
532.228	10.94356
532.429	10.70483
532.63	11.05476
532.831	11.99408
533.032	11.8631
533.233	12.83855
533.433	12.53667
533.634	12.89194
533.835	11.901
534.036	11.35734
534.237	10.7272
534.438	10.15596
534.638	8.8468
534.839	9.32897
535.04	9.5934
535.241	8.9924
535.441	10.2495
535.642	9.363
535.843	8.21429
536.043	8.37763
536.244	8.41799
536.445	8.5892
536.645	9.32787
536.846	9.06422
537.047	9.7989
537.247	8.39813
537.448	8.87612
537.648	9.15687
537.849	9.08953
538.049	9.08637
538.25	9.6164
538.451	9.66774
538.651	8.34738
538.851	9.32621
539.052	9.87359
539.252	9.58192
539.453	8.67191
539.653	9.12364
539.854	8.64735
540.054	8.7748
540.254	9.58786
540.455	10.58138
540.655	10.5079
540.855	11.94503
541.056	13.11816
541.256	13.09811
541.456	14.03271
541.657	13.32476
541.857	14.36695
542.057	12.51933
542.257	12.12426
542.458	12.70377
542.658	12.03768
542.858	10.24259
543.058	10.74133
543.258	9.90348
543.458	8.48829
543.659	8.47963
543.859	9.65385
544.059	9.74187
544.259	8.97086
544.459	9.75662
544.659	8.52556
544.859	9.19626
545.059	8.66759
545.259	9.48044
545.459	9.02096
545.659	9.61943
545.859	8.88395
546.059	8.76098
546.259	8.16304
546.459	7.95093
546.659	7.99165
546.859	9.44354
547.059	8.95708
547.258	9.27244
547.458	9.31681
547.658	8.42278
547.858	8.05458
548.058	9.27893
548.258	8.94355
548.457	8.07981
548.657	10.76692
548.857	8.47427
549.057	9.33517
549.256	9.38145
549.456	8.3261
549.656	6.92738
549.855	10.22172
550.055	8.35118
550.255	10.22143
550.454	8.84342
550.654	9.26281
550.853	9.83143
551.053	9.26007
551.253	8.60472
551.452	8.86474
551.652	7.56932
551.851	7.28179
552.051	8.2477
552.25	8.03213
552.45	7.80916
552.649	8.25802
552.849	7.82481
553.048	8.35342
553.248	9.23097
553.447	7.8466
553.646	9.2357
553.846	10.18037
554.045	9.62081
554.244	7.42728
554.444	10.09779
554.643	7.72632
554.842	10.0523
555.042	10.50504
555.241	8.04869
555.44	7.30644
555.64	9.18983
555.839	10.36286
556.038	8.81755
556.237	7.64638
556.436	8.66364
556.636	9.1732
556.835	7.63918
557.034	10.08347
557.233	8.2944
557.432	7.15138
557.631	9.5582
557.83	8.28368
558.029	7.90168
558.228	7.56359
558.427	7.46829
558.626	8.83713
558.825	7.3772
559.024	8.42773
559.223	10.13719
559.422	7.81398
559.621	9.06247
559.82	6.19523
560.019	8.31256
560.218	8.14642
560.417	5.39994
560.616	7.70541
560.815	11.84372
561.014	7.14851
561.212	10.09867
561.411	8.28455
561.61	6.90567
561.809	7.83927
562.008	9.84721
562.206	8.13794
562.405	8.91227
562.604	7.88267
562.803	8.75585
563.001	8.37813
563.2	7.08311
563.399	8.80045
563.597	7.27688
563.796	8.53622
563.995	7.13045
564.193	9.02947
564.392	8.22809
564.59	10.71908
564.789	6.34527
564.988	7.76996
565.186	8.37784
565.385	7.91403
565.583	8.05354
565.782	8.14749
565.98	8.2124
566.179	8.23818
566.377	7.60361
566.575	7.96128
566.774	9.66965
566.972	9.36321
567.171	10.60398
567.369	9.77413
567.567	8.85324
567.766	9.14321
567.964	6.46414
568.162	8.99991
568.361	9.40796
568.559	8.18085
568.757	8.67945
568.956	8.73996
569.154	8.53217
569.352	9.09595
569.55	8.14741
569.748	8.37878
569.947	7.65553
570.145	7.60211
570.343	7.50761
570.541	9.53731
570.739	6.98616
570.937	8.11491
571.135	8.58213
571.333	10.24861
571.532	9.83314
571.73	8.47104
571.928	9.49801
572.126	9.01501
572.324	7.89557
572.522	9.86946
572.72	11.25294
572.918	8.54662
573.116	9.24058
573.313	8.62147
573.511	8.76328
573.709	7.79368
573.907	9.47072
574.105	8.07958
574.303	6.88841
574.501	6.88374
574.699	8.93037
574.896	8.92008
575.094	9.02098
575.292	7.04762
575.49	9.63299
575.688	8.34929
575.885	9.77056
576.083	10.63478
576.281	9.25812
576.478	7.70958
576.676	8.89739
576.874	6.65432
577.071	7.97971
577.269	11.03136
577.467	8.54939
577.664	8.22875
577.862	9.67547
578.059	7.39458
578.257	9.32395
578.455	8.0329
578.652	8.56956
578.85	6.20675
579.047	8.41495
579.245	8.11518
579.442	7.96165
579.64	8.2217
579.837	5.88238
580.034	11.51035
580.232	7.89083
580.429	6.91181
580.627	8.89261
580.824	10.00687
581.021	8.9123
581.219	7.80061
581.416	7.15465
581.613	10.03746
581.811	9.80263
582.008	6.93946
582.205	9.17093
582.402	8.70018
582.6	10.5176
582.797	8.21945
582.994	8.59975
583.191	9.12585
583.388	8.26137
583.586	8.99418
583.783	9.50711
583.98	7.44706
584.177	8.42142
584.374	4.33138
584.571	8.22884
584.768	8.16735
584.965	7.15406
585.162	8.95001
585.359	10.34858
585.556	8.36805
585.753	8.91435
585.95	6.67443
586.147	7.59947
586.344	8.88568
586.541	7.93049
586.738	6.6246
586.935	7.90868
587.132	7.25953
587.329	9.6497
587.526	8.25482
587.722	14.40754
587.919	6.42376
588.116	8.79592
588.313	9.99375
588.51	11.08174
588.706	7.70966
588.903	9.02682
589.1	9.53647
589.297	11.46514
589.493	8.56763
589.69	8.92452
589.887	7.59529
590.083	6.8341
590.28	7.55081
590.477	9.39492
590.673	9.30699
590.87	10.22482
591.067	8.33075
591.263	9.30522
591.46	8.80397
591.656	7.98494
591.853	10.17643
592.049	7.13673
592.246	7.85472
592.442	9.82584
592.639	9.89784
592.835	7.29156
593.032	8.99183
593.228	6.5151
593.425	6.44735
593.621	6.28911
593.817	8.80339
594.014	6.99295
594.21	8.37861
594.406	9.72681
594.603	9.16705
594.799	7.55606
594.995	5.37028
595.192	9.71433
595.388	7.79812
595.584	7.84214
595.78	6.65305
595.977	11.1384
596.173	10.19852
596.369	7.98764
596.565	7.05859
596.761	6.5462
596.957	9.96589
597.154	7.59549
597.35	7.87815
597.546	7.47415
597.742	9.60851
597.938	8.6124
598.134	7.74972
598.33	9.09399
598.526	10.48972
598.722	8.94876
598.918	10.89877
599.114	9.26512
599.31	7.59355
599.506	8.30421
599.702	7.31419
599.898	8.31595
600.094	9.14017
600.29	9.25304
600.485	9.70688
600.681	7.39575
600.877	10.92364
601.073	8.15452
601.269	11.44775
601.465	10.18991
601.66	6.94592
601.856	5.6134
602.052	10.72187
602.248	7.718
602.443	5.94564
602.639	6.39321
602.835	7.04127
603.03	6.95583
603.226	9.39804
603.422	6.73038
603.617	7.91742
603.813	8.0947
604.009	7.82183
604.204	10.04727
604.4	6.53951
604.595	9.77496
604.791	7.52457
604.986	8.95343
605.182	7.39011
605.377	8.30322
605.573	7.90555
605.768	8.83708
605.964	9.55253
606.159	9.83823
606.355	10.29871
606.55	7.67051
606.746	10.26995
606.941	8.15429
607.136	11.09718
607.332	12.65188
607.527	6.04372
607.722	8.81639
607.918	7.9036
608.113	7.51002
608.308	9.45678
608.503	9.04776
608.699	8.63844
608.894	9.14891
609.089	7.36036
609.284	8.50687
609.479	7.79957
609.675	9.43698
609.87	7.80362
610.065	9.71904
610.26	10.06037
610.455	9.78522
610.65	8.50292
610.845	8.82603
611.04	9.95069
611.235	8.45601
611.43	8.13858
611.625	7.03526
611.82	10.7971
612.015	7.63879
612.21	10.8014
612.405	6.37609
612.6	11.27268
612.795	10.72065
612.99	9.27125
613.185	6.98681
613.38	7.54195
613.575	8.97384
613.77	12.67372
613.965	6.02488
614.159	7.13523
614.354	10.77859
614.549	10.41827
614.744	9.39389
614.938	7.29771
615.133	6.61883
615.328	11.06379
615.523	10.27511
615.717	13.25721
615.912	7.39094
616.107	8.79011
616.301	7.87304
616.496	7.60606
616.691	11.42786
616.885	9.92062
617.08	13.48943
617.274	10.17105
617.469	12.34563
617.664	9.47394
617.858	7.6631
618.053	9.38352
618.247	8.32807
618.442	5.41004
618.636	11.55045
618.831	7.69516
619.025	7.58972
619.219	13.32863
619.414	3.84662
619.608	8.48139
619.803	7.46991
619.997	12.49081
620.191	10.87789
620.386	9.34011
620.58	8.79101
620.774	5.98671
620.969	6.22047
621.163	8.87969
621.357	6.88578
621.551	8.61975
621.746	9.37205
621.94	8.2053
622.134	14.46524
622.328	12.59253
622.522	6.40219
622.716	10.33742
622.911	10.77296
623.105	10.43601
623.299	9.41976
623.493	15.03781
623.687	7.22827
623.881	7.83199
624.075	9.67329
624.269	11.12115
624.463	5.5811
624.657	6.10783
624.851	10.0891
625.045	10.25689
625.239	10.39363
625.433	8.44686
625.627	11.36096
625.821	7.72663
626.015	7.36541
626.209	9.25019
626.403	6.89615
626.596	9.7033
626.79	10.14131
626.984	6.85897
627.178	9.73634
627.372	9.55065
627.565	10.37871
627.759	6.57429
627.953	6.80476
628.147	9.91517
628.34	10.44509
628.534	12.78182
628.728	8.8041
628.921	10.31236
629.115	10.2949
629.309	10.40268
629.502	11.23677
629.696	9.28482
629.89	8.8936
630.083	9.47841
630.277	9.77142
630.47	12.68206
630.664	8.25913
630.857	6.30645
631.051	10.48285
631.244	11.86656
631.438	10.58641
631.631	7.34066
631.825	11.82417
632.018	10.61386
632.212	13.05517
632.405	11.62778
632.598	8.24351
632.792	9.03883
632.985	4.86906
633.178	8.41438
633.372	8.57256
633.565	8.72205
633.758	12.14148
633.952	7.24035
634.145	7.28709
634.338	8.31261
634.531	7.74409
634.724	8.14289
634.918	9.06004
635.111	8.40606
635.304	8.45977
635.497	13.90358
635.69	9.94901
635.883	12.13987
636.077	6.8705
636.27	10.09273
636.463	9.57846
636.656	10.35156
636.849	8.44499
637.042	10.87564
637.235	13.06511
637.428	11.10207
637.621	11.89776
637.814	12.63009
638.007	13.27301
638.2	12.17538
638.393	13.63035
638.586	7.29631
638.778	8.64517
638.971	9.46602
639.164	14.08264
639.357	10.21423
639.55	13.04135
639.743	11.60536
639.935	10.56402
640.128	14.33121
640.321	11.92856
640.514	10.60713
640.707	15.90013
640.899	11.43642
641.092	6.32575
641.285	28.46804
641.477	5.01739
641.67	15.31781
641.863	12.94219
642.055	10.90257
642.248	10.34339
642.441	8.62053
642.633	11.64489
642.826	12.82371
643.018	13.65295
643.211	15.28042
643.403	15.39575
643.596	15.55427
643.788	14.76159
643.981	9.42693
644.173	12.83212
644.366	10.38237
644.558	5.96925
644.751	13.20332
644.943	7.18604
645.135	15.08937
645.328	14.60235
645.52	11.4027
645.712	13.029
645.905	18.95064
646.097	7.40834
646.289	11.23519
646.482	16.22993
646.674	9.22619
646.866	13.53214
647.058	12.32148
647.251	7.39598
647.443	9.16783
647.635	10.19323
647.827	7.70425
648.019	9.16025
648.211	10.39318
648.404	10.8676
648.596	15.68572
648.788	11.80376
648.98	11.04442
649.172	12.27413
649.364	12.0795
649.556	6.00498
649.748	17.67967
649.94	8.55742
650.132	12.11129
650.324	8.3172
650.516	9.46899
650.708	14.35603
650.9	7.00202
651.092	7.09353
651.284	7.06333
651.476	7.37928
651.667	12.2012
651.859	13.9188
652.051	10.85206
652.243	10.969
652.435	9.27914
652.627	12.31281
652.818	12.05715
653.01	7.38382
653.202	8.64232
653.394	10.48107
653.585	12.31942
653.777	23.81749
653.969	14.94475
654.16	14.76878
654.352	8.47865
654.544	10.35596
654.735	14.59758
654.927	11.66172
655.118	15.37699
655.31	13.30172
655.502	14.52149
655.693	9.63164
655.885	12.82197
656.076	15.11426
656.268	11.87896
656.459	15.76622
656.651	14.88694
656.842	10.773
657.034	8.93265
657.225	13.34018
657.416	14.5296
657.608	15.39676
657.799	11.69521
657.99	14.51604
658.182	9.60575
658.373	9.46464
658.564	13.36802
658.756	11.32881
658.947	10.73433
659.138	8.4911
659.33	9.84199
659.521	9.23724
659.712	10.68247
659.903	10.05348
660.094	10.13648
660.286	7.44203
660.477	16.5272
660.668	13.28487
660.859	11.35059
661.05	7.19967
661.241	13.94001
661.432	12.93756
661.623	11.17728
661.814	10.10276
662.006	6.89094
662.197	12.33737
662.388	15.66953
662.579	12.34694
662.77	20.08744
662.96	20.5125
663.151	14.99938
663.342	7.33163
663.533	14.14852
663.724	12.18127
663.915	17.29277
664.106	11.46719
664.297	17.5377
664.488	13.8236
664.678	10.60713
664.869	14.57749
665.06	16.78281
665.251	12.94331
665.442	13.80868
665.632	9.23011
665.823	17.5422
666.014	3.43731
666.204	14.76017
666.395	16.83268
666.586	21.09187
666.776	15.77356
666.967	17.49758
667.158	13.12928
667.348	17.14152
667.539	9.07858
667.729	15.51555
667.92	9.68289
668.111	15.28181
668.301	14.4066
668.492	11.83297
668.682	12.9752
668.873	12.17736
669.063	8.96552
669.253	13.38348
669.444	15.9864
669.634	11.96748
669.825	19.59864
670.015	16.39044
670.206	10.01935
670.396	20.01913
670.586	11.99513
670.777	14.97677
670.967	6.36604
671.157	11.63869
671.347	10.41821
671.538	18.71123
671.728	14.29321
671.918	19.5904
672.108	16.01394
672.299	11.65618
672.489	14.24701
672.679	11.2386
672.869	15.11733
673.059	19.80398
673.249	15.8719
673.44	9.59133
673.63	12.29202
673.82	16.37193
674.01	11.17652
674.2	15.20257
674.39	22.99511
674.58	16.44966
674.77	13.60479
674.96	13.42048
675.15	29.23942
675.34	17.86312
675.53	14.15787
675.72	12.75738
675.91	8.11245
676.099	20.73497
676.289	21.89113
676.479	16.99415
676.669	11.56539
676.859	16.25436
677.049	9.8183
677.238	14.28471
677.428	20.56551
677.618	15.74934
677.808	18.19635
677.997	16.0553
678.187	9.90781
678.377	14.00131
678.567	12.41214
678.756	11.8644
678.946	12.71932
679.136	9.23835
679.325	10.6984
679.515	10.24487
679.704	9.36981
679.894	15.40226
680.084	14.34617
680.273	17.33429
680.463	10.58078
680.652	10.73509
680.842	13.88248
681.031	16.40508
681.221	10.67005
681.41	15.48192
681.6	13.15882
681.789	16.85173
681.978	18.52077
682.168	15.18129
682.357	15.00651
682.547	16.80164
682.736	15.44269
682.925	18.49234
683.115	18.18831
683.304	18.14823
683.493	15.57462
683.682	15.85343
683.872	16.50184
684.061	20.6154
684.25	17.30179
684.439	23.05757
684.629	17.02957
684.818	28.77118
685.007	14.23313
685.196	13.55092
685.385	21.96441
685.574	15.91744
685.763	17.03691
685.952	15.47912
686.142	10.9587
686.331	20.06994
686.52	8.9873
686.709	22.91546
686.898	21.85139
687.087	17.43122
687.276	22.76495
687.465	19.98669
687.654	14.06959
687.842	23.04212
688.031	10.04035
688.22	21.16711
688.409	17.10905
688.598	16.55475
688.787	27.06953
688.976	16.45845
689.165	24.51867
689.353	13.89069
689.542	18.48174
689.731	19.99868
689.92	25.55124
690.108	20.20491
690.297	15.23601
690.486	16.91796
690.675	20.94058
690.863	24.57396
691.052	23.91531
691.241	18.25007
691.429	18.03504
691.618	24.13427
691.806	11.52365
691.995	15.84643
692.184	17.85194
692.372	15.07945
692.561	18.54972
692.749	18.04075
692.938	29.87019
693.126	21.23477
693.315	17.9538
693.503	20.83098
693.692	20.80116
693.88	22.64046
694.068	27.61004
694.257	17.57901
694.445	19.14857
694.634	8.35997
694.822	22.19315
695.01	24.30801
695.199	26.47971
695.387	25.7937
695.575	23.92917
695.763	18.38996
695.952	15.12862
696.14	10.88958
696.328	15.12717
696.516	19.01697
696.705	18.83725
696.893	19.3121
697.081	10.07724
697.269	21.32769
697.457	13.48192
697.645	12.00608
697.833	20.67694
698.021	13.75768
698.21	14.48926
698.398	14.92048
698.586	11.97478
698.774	11.74282
698.962	15.60624
699.15	12.94895
699.338	10.59041
699.526	18.66559
699.714	14.75788
699.901	14.72944
700.089	21.52387
700.277	13.24405
700.465	17.06531
700.653	20.86949
700.841	19.63308
701.029	14.47356
701.217	24.58964
701.404	19.16836
701.592	25.25071
701.78	28.40188
701.968	18.16454
702.155	18.60484
702.343	11.61875
702.531	24.73942
702.718	20.77194
702.906	19.20633
703.094	16.65367
703.281	26.26222
703.469	18.15682
703.657	25.74105
703.844	36.5888
704.032	29.47141
704.219	15.89715
704.407	21.68523
704.595	26.33094
704.782	19.81347
704.97	17.0879
705.157	18.05327
705.345	27.42412
705.532	37.58983
705.719	22.87651
705.907	28.70445
706.094	21.54374
706.282	30.97336
706.469	18.90777
706.656	21.85339
706.844	18.92403
707.031	25.38067
707.218	22.18052
707.406	31.55588
707.593	25.32229
707.78	25.00883
707.968	20.84432
708.155	15.82258
708.342	25.04807
708.529	25.38371
708.716	23.62299
708.904	31.43567
709.091	26.01526
709.278	13.91615
709.465	32.792
709.652	30.94803
709.839	28.96552
710.026	24.15574
710.213	13.75512
710.4	23.62273
710.587	27.72965
710.774	29.13012
710.961	27.88165
711.148	22.78533
711.335	28.94145
711.522	22.50065
711.709	25.17632
711.896	35.59946
712.083	28.74685
712.27	17.9511
712.457	23.93361
712.644	14.74318
712.831	36.96771
713.017	22.85632
713.204	26.11569
713.391	19.9009
713.578	29.99201
713.765	32.18775
713.951	27.41621
714.138	43.36285
714.325	27.32124
714.512	23.73238
714.698	19.23048
714.885	33.25064
715.072	26.24896
715.258	25.10178
715.445	21.88055
715.631	32.84651
715.818	9.48265
716.005	20.37499
716.191	28.32849
716.378	21.48427
716.564	31.03887
716.751	20.12201
716.937	22.56742
717.124	33.49334
717.31	20.4669
717.497	37.27867
717.683	22.71664
717.869	40.3306
718.056	22.4815
718.242	28.7711
718.429	25.10328
718.615	18.12278
718.801	26.16726
718.988	34.90891
719.174	29.43418
719.36	25.00174
719.547	33.36227
719.733	29.0118
719.919	29.95356
720.105	33.58169
720.291	25.11626
720.478	27.91134
720.664	26.99678
720.85	23.02597
721.036	47.61658
721.222	38.24629
721.408	28.4328
721.595	41.07443
721.781	41.50113
721.967	37.57918
722.153	38.66974
722.339	32.25456
722.525	31.29566
722.711	20.48999
722.897	17.8226
723.083	25.30345
723.269	36.28495
723.455	48.83637
723.641	54.20522
723.827	32.31574
724.012	32.17378
724.198	26.85268
724.384	38.70201
724.57	31.32394
724.756	17.49655
724.942	13.68522
725.127	37.46674
725.313	39.4423
725.499	39.64392
725.685	44.21497
725.87	29.58603
726.056	22.39302
726.242	37.30482
726.428	17.50659
726.613	36.27995
726.799	26.35091
726.985	20.55899
727.17	17.35677
727.356	42.17534
727.541	22.06292
727.727	27.07149
727.913	34.94046
728.098	25.64596
728.284	33.98662
728.469	18.44842
728.655	22.28335
728.84	36.04235
729.026	33.39688
729.211	35.70183
729.397	32.54016
729.582	33.80908
729.767	31.27963
729.953	31.63906
730.138	37.90323
730.323	12.36833
730.509	20.71429
730.694	40.79982
730.879	33.10777
731.065	30.69232
731.25	47.74743
731.435	34.05429
731.621	17.38531
731.806	25.47842
731.991	31.47311
732.176	16.63742
732.361	40.54476
732.547	34.29829
732.732	16.90499
732.917	48.38732
733.102	21.03901
733.287	22.58344
733.472	29.83158
733.657	30.25808
733.842	18.45679
734.027	25.50664
734.212	28.52414
734.397	23.6018
734.582	31.90005
734.767	38.83087
734.952	42.51768
735.137	10.87818
735.322	44.04787
735.507	33.54491
735.692	33.65406
735.877	52.96861
736.062	48.66686
736.247	32.80241
736.431	30.04819
736.616	42.14615
736.801	33.2685
736.986	29.5536
737.171	24.55392
737.355	20.07813
737.54	44.67256
737.725	32.40889
737.909	57.98537
738.094	27.44422
738.279	39.41134
738.463	29.84601
738.648	38.31341
738.833	36.40407
739.017	50.07108
739.202	30.22895
739.386	31.44678
739.571	25.41184
739.756	38.73506
739.94	34.63342
740.125	39.78234
740.309	25.9237
740.494	39.33026
740.678	33.16339
740.863	37.89556
741.047	35.93689
741.231	46.15432
741.416	23.89246
741.6	46.70589
741.785	27.06096
741.969	41.67873
742.153	45.11923
742.338	14.12856
742.522	35.26814
742.706	42.26544
742.89	20.31069
743.075	34.84605
743.259	48.52791
743.443	41.95182
743.627	48.10697
743.812	57.73142
743.996	9.82289
744.18	34.52111
744.364	27.03451
744.548	62.46724
744.732	33.40709
744.916	42.24867
745.1	40.91197
745.285	35.82316
745.469	42.52458
745.653	54.26402
745.837	20.24455
746.021	59.7293
746.205	49.04659
746.389	39.82663
746.573	31.04272
746.757	52.30069
746.94	31.1495
747.124	49.71842
747.308	23.94402
747.492	50.24827
747.676	28.03054
747.86	61.49607
748.044	31.75503
748.227	19.0904
748.411	80.29415
748.595	39.33027
748.779	26.34811
748.963	40.85596
749.146	37.4598
749.33	27.10638
749.514	25.19933
749.697	48.48897
749.881	28.50508
750.065	26.18791
750.248	36.71369
750.432	61.94311
750.616	38.76085
750.799	20.08029
750.983	58.883
751.166	69.27963
751.35	19.52074
751.533	43.31766
751.717	51.04184
751.9	54.79526
752.084	29.95351
752.267	23.06155
752.451	28.43429
752.634	42.96138
752.818	44.92171
753.001	46.61589
753.184	49.14272
753.368	40.53683
753.551	1.96043
753.734	30.664
753.918	63.63933
754.101	27.78874
754.284	44.66756
754.467	32.03531
754.651	29.84654
754.834	28.72982
755.017	50.29225
755.2	49.57359
755.384	27.18414
755.567	45.66048
755.75	54.36893
755.933	33.7333
756.116	43.48302
756.299	31.41819
756.482	26.00267
756.665	46.43372
756.848	38.53588
757.032	45.01055
757.215	20.7887
757.398	28.41289
757.581	27.33448
757.764	71.50888
757.947	36.52762
758.129	52.0997
758.312	3.95826
758.495	34.77456
758.678	33.63626
758.861	39.65396
759.044	62.77084
759.227	29.08681
759.41	29.14314
759.592	45.88219
759.775	36.10577
759.958	49.76351
760.141	22.52667
760.324	65.21272
760.506	58.81174
760.689	47.60483
760.872	68.33533
761.054	44.9485
761.237	31.39616
761.42	46.2012
761.602	49.15731
761.785	44.59794
761.968	49.74899
762.15	58.62426
762.333	37.90977
762.515	40.13434
762.698	30.41922
762.88	43.36935
763.063	37.51115
763.245	44.99375
763.428	26.40552
763.61	24.98719
763.793	23.76348
763.975	37.57281
764.158	30.27718
764.34	28.20051
764.522	24.74183
764.705	33.44514
764.887	51.67527
765.069	20.91236
765.252	44.72736
765.434	45.96388
765.616	37.82643
765.799	31.0804
765.981	44.07634
766.163	27.41128
766.345	52.81375
766.528	30.8153
766.71	12.55834
766.892	40.43113
767.074	55.2232
767.256	35.87438
767.438	63.63048
767.62	46.67776
767.802	71.95411
767.985	48.42739
768.167	67.18515
768.349	31.89108
768.531	51.2159
768.713	43.15697
768.895	56.63555
769.077	46.05971
769.259	79.91798
769.441	115.30158
769.623	56.62422
769.804	67.0316
769.986	71.64683
770.168	88.46292
770.35	106.6946
770.532	74.35202
770.714	76.78837
770.896	87.20675
771.077	25.65054
771.259	89.68219
771.441	71.22323
771.623	92.88008
771.804	121.55275
771.986	28.74377
772.168	52.78939
772.35	87.00056
772.531	123.69821
772.713	73.31975
772.894	90.8893
773.076	58.8888
773.258	49.99724
773.439	91.67949
773.621	103.36149
773.802	41.95357
773.984	67.6092
774.166	73.09356
774.347	109.25908
774.529	92.60666
774.71	19.1751
774.891	63.84238
775.073	65.66801
775.254	110.84642
775.436	52.75101
775.617	113.58054
775.799	57.13095
775.98	115.47852
776.161	108.21952
776.343	104.78841
776.524	69.21737
776.705	59.33161
776.886	32.29252
777.068	73.06733
777.249	136.14293
777.43	116.70835
777.611	47.10369
777.793	62.25912
777.974	110.11667
778.155	61.15014
778.336	47.84076
778.517	118.21721
778.698	48.98181
778.879	26.12311
779.061	11.38929
779.242	80.16766
779.423	78.84116
779.604	49.73539
779.785	67.06218
779.966	79.66054
780.147	95.64638
780.328	94.91287
780.509	129.20608
780.69	93.99435
780.871	57.64909
781.051	30.57711
781.232	77.45286
781.413	82.48129
781.594	56.93209
781.775	55.83894
781.956	53.5171
782.137	26.4034
782.317	54.0053
782.498	75.08328
782.679	83.98928
782.86	73.20067
783.04	54.18964
783.221	76.77581
783.402	124.99976
783.583	76.16323
783.763	89.18345
783.944	59.56849
784.124	40.72864
784.305	118.20062
784.486	86.89998
784.666	65.97724
784.847	31.03113
785.027	164.00849
785.208	52.79388
785.388	51.23203
785.569	52.3003
785.749	61.98239
785.93	51.95326
786.11	34.13449
786.291	84.78992
786.471	80.5723
786.652	91.40631
786.832	67.03745
787.012	76.82488
787.193	37.79361
787.373	66.75812
787.553	63.15099
787.734	73.51902
787.914	56.22058
788.094	82.09279
788.275	71.69934
788.455	56.10383
788.635	34.32247
788.815	72.3122
788.995	41.43429
789.176	33.33306
789.356	47.15936
789.536	53.95215
789.716	77.11425
789.896	47.07373
790.076	57.78324
790.256	68.60791
790.436	15.33151
790.616	43.01658
790.796	74.54181
790.976	56.4556
791.156	55.4456
791.336	90.69454
791.516	72.95492
791.696	61.82036
791.876	29.06669
792.056	73.30356
792.236	99.3278
792.416	90.54425
792.596	87.04398
792.776	80.10848
792.956	86.0833
793.135	115.64396
793.315	48.34818
793.495	99.26019
793.675	80.48823
793.854	92.1461
794.034	92.64471
794.214	45.15032
794.394	87.93925
794.573	101.00403
794.753	70.50176
794.933	52.90519
795.112	74.93938
795.292	84.6086
795.472	113.56618
795.651	44.39564
795.831	69.49513
796.01	54.19813
796.19	57.6937
796.369	59.97253
796.549	82.51281
796.728	59.12461
796.908	42.64053
797.087	45.1108
797.267	68.01233
797.446	43.17654
797.626	75.76429
797.805	74.24974
797.984	45.49663
798.164	78.62519
798.343	46.53899
798.522	73.01928
798.702	67.18219
798.881	37.26378
799.06	58.40189
799.239	24.81894
799.419	41.39122
799.598	106.34272
799.777	85.61614
799.956	93.92534
800.136	56.40198
800.315	55.26561
800.494	76.30147
800.673	92.50328
800.852	91.81378
801.031	96.39124
801.21	84.16169
801.389	51.14645
801.568	73.80858
801.747	120.53928
801.926	65.55449
802.105	106.15355
802.284	64.47192
802.463	102.76026
802.642	79.87286
802.821	73.91167
803	102.62196
803.179	87.59467
803.358	102.67804
803.537	58.22878
803.716	91.20794
803.895	60.85775
804.073	64.7151
804.252	57.3737
804.431	85.3106
804.61	77.57128
804.789	98.25645
804.967	59.53474
805.146	63.46528
805.325	134.73809
805.503	82.80277
805.682	36.63456
805.861	150.92527
806.039	103.1827
806.218	49.7118
806.397	78.10075
806.575	79.67666
806.754	70.58633
806.932	55.31615
807.111	115.06986
807.289	91.65458
807.468	87.03082
807.646	94.53098
807.825	81.00337
808.003	83.79786
808.182	99.09604
808.36	76.28549
808.539	56.15348
808.717	114.08508
808.895	50.38421
809.074	78.62897
809.252	64.74748
809.43	103.93525
809.609	115.12227
809.787	133.83064
809.965	72.47638
810.144	79.86141
810.322	65.02299
810.5	86.06721
810.678	72.44404
810.856	144.43308
811.035	100.74431
811.213	106.39617
811.391	114.21515
811.569	83.2846
811.747	177.68454
811.925	121.45212
812.103	62.71615
812.281	61.59019
812.459	152.43233
812.637	118.22131
812.816	111.02703
812.994	143.72235
813.171	113.77772
813.349	103.67108
813.527	121.75377
813.705	131.80702
813.883	142.38285
814.061	117.29098
814.239	141.70457
814.417	155.4556
814.595	103.75674
814.773	95.62215
814.95	86.25888
815.128	94.74197
815.306	71.74785
815.484	81.59128
815.662	58.95582
815.839	54.78817
816.017	64.48697
816.195	116.78656
816.372	66.47057
816.55	122.75997
816.728	123.61976
816.905	80.81287
817.083	124.66195
817.261	82.74686
817.438	181.15487
817.616	148.99552
817.793	74.22324
817.971	103.73
818.148	101.64422
818.326	130.87557
818.503	94.87838
818.681	135.04877
818.858	62.25725
819.036	89.83457
819.213	93.55114
819.391	61.75514
819.568	56.22653
819.745	51.2214
819.923	91.83684
820.1	56.98622
820.277	50.92771
820.455	60.31725
820.632	63.98439
820.809	68.39882
820.986	38.31815
821.164	30.18671
821.341	27.37194
821.518	39.34767
821.695	28.53177
821.872	25.04191
822.05	22.02603
822.227	17.59161
822.404	18.84569
822.581	22.95021
822.758	19.49595
822.935	19.92169
823.112	23.48412
823.289	20.17537
823.466	25.14911
823.643	24.4315
823.82	29.63298
823.997	28.10627
824.174	33.9171
824.351	44.31467
824.528	43.68199
824.705	40.66334
824.882	45.73684
825.059	58.43813
825.236	42.13929
825.412	43.13154
825.589	52.80475
825.766	71.42822
825.943	44.27261
826.12	51.01606
826.296	33.9518
826.473	42.09575
826.65	41.02026
826.827	49.18765
827.003	31.65176
827.18	35.32119
827.357	39.5399
827.533	35.50548
827.71	19.35577
827.887	31.01767
828.063	38.27794
828.24	31.65125
828.416	44.04418
828.593	37.27039
828.769	56.62886
828.946	60.64944
829.122	60.77373
829.299	68.67337
829.475	33.8136
829.652	62.60524
829.828	102.25989
830.005	64.79675
830.181	91.75879
830.357	66.50403
830.534	85.07048
830.71	66.79205
830.886	95.85133
831.063	86.89312
831.239	120.13923
831.415	53.70985
831.592	112.34974
831.768	71.36886
831.944	50.43953
832.12	116.38838
832.296	109.24718
832.473	89.84078
832.649	57.24988
832.825	83.57784
833.001	45.69578
833.177	69.91001
833.353	62.09095
833.529	34.01008
833.705	48.38288
833.881	34.11746
834.058	33.00382
834.234	36.96352
834.41	38.38367
834.586	29.07927
834.761	34.15504
834.937	42.28937
835.113	43.23552
835.289	38.69341
835.465	49.77888
835.641	46.57235
835.817	51.60622
835.993	98.93309
836.169	44.97545
836.344	77.32757
836.52	83.2548
836.696	96.61211
836.872	57.49748
837.048	196.51238
837.223	63.35452
837.399	151.39392
837.575	136.79979
837.75	117.33011
837.926	167.76865
838.102	266.11897
838.277	189.40788
838.453	274.28315
838.628	267.4473
838.804	95.03974
838.98	243.8217
839.155	126.46855
839.331	161.74222
839.506	105.43497
839.682	105.99106
839.857	142.76133
840.033	148.10714
840.208	66.9169
840.384	42.28589
840.559	76.23078
840.734	123.37755
840.91	153.17441
841.085	102.162
841.26	100.99465
841.436	119.53991
841.611	91.2539
841.786	141.5616
841.962	219.58507
842.137	143.40104
842.312	72.97924
842.487	117.37801
842.663	99.02939
842.838	118.15071
843.013	535.39317
843.188	308.27773
843.363	184.02616
843.538	493.56861
843.714	504.79599
843.889	443.63664
844.064	471.47192
844.239	266.64964
844.414	537.95855
844.589	312.67779
844.764	691.50067
844.939	479.02892
845.114	431.92931
845.289	628.69642
845.464	775.70538
845.639	707.83706
845.814	211.85949
845.989	499.18639
846.163	374.90379
846.338	728.45751
846.513	624.26501
846.688	346.46368
846.863	711.50829
847.038	396.73482
847.212	340.76599
847.387	758.82615
847.562	377.20146
847.737	575.72311
847.911	224.72644
848.086	219.69466
848.261	473.08291
848.435	354.66683
848.61	534.34589
848.785	245.22456
848.959	508.0519
849.134	628.86049
849.308	1089.87032
849.483	705.60076
849.658	684.92464
849.832	357.91634
850.007	250.71083
850.181	1041.5863
850.356	600.48461
850.53	959.12251
850.705	412.62533
850.879	170.18616
851.053	494.12137
851.228	406.1157
851.402	805.96269
851.577	635.61739
851.751	794.34006
851.925	410.35249
852.099	243.38278
852.274	287.86815
852.448	388.81503
852.622	944.23217
852.797	393.56201
852.971	440.01452
853.145	815.48749
853.319	990.03933
853.493	1122.59818
853.668	504.05972
853.842	1538.01013
854.016	1107.35507
854.19	1573.79619
854.364	629.42838
854.538	589.17944
854.712	736.62121
854.886	397.77629
855.06	353.72557
855.234	157.0833
855.408	850.50704
855.582	583.94914
855.756	894.81815
855.93	546.68592
856.104	659.0631
856.278	794.84599
856.452	389.31701
856.626	688.92914
856.8	1104.92827
856.973	1065.65167
857.147	1061.51436
857.321	1437.91359
857.495	539.9937
857.669	760.49007
857.842	636.57188
858.016	467.95949
858.19	334.9223
858.364	1255.87974
858.537	565.45039
858.711	1212.63554
858.885	850.93436
859.058	294.51995
859.232	248.83454
859.405	390.09613
859.579	773.58261
859.753	662.99929
859.926	809.00178
860.1	589.40217
860.273	966.53154
860.447	828.78973
860.62	603.87082
860.794	860.67839
860.967	622.15021
861.141	576.16245
861.314	719.86007
861.487	651.69313
861.661	518.22269
861.834	800.81126
862.008	1062.69913
862.181	774.01893
862.354	1385.77748
862.528	692.24403
862.701	408.68248
862.874	350.46148
863.047	492.02681
863.221	520.76505
863.394	317.18533
863.567	479.76318
863.74	149.33645
863.913	1007.93976
864.087	614.23587
864.26	653.61428
864.433	691.04087
864.606	1013.1187
864.779	1600.94697
864.952	311.33095
865.125	988.35671
865.298	608.90825
865.471	571.80181
865.644	1016.89332
865.817	578.58535
865.99	965.41351
866.163	825.05709
866.336	473.10437
866.509	410.39519
866.682	634.72238
866.855	1283.24607
867.028	189.86871
867.2	638.94896
867.373	128.561
867.546	437.17842
867.719	1213.61056
867.892	663.47577
868.064	396.37657
868.237	456.06328
868.41	479.49543
868.583	276.19139
868.755	291.24055
868.928	649.75672
869.101	908.60224
869.273	1601.36548
869.446	462.84187
869.619	988.18356
869.791	453.76024
869.964	759.56187
870.136	978.95907
870.309	425.19582
870.481	380.41536
870.654	349.30264
870.826	435.177
870.999	326.24463
871.171	494.93484
871.344	259.64266
871.516	441.68724
871.689	430.7879
871.861	537.65952
872.033	341.63854
872.206	355.151
872.378	464.46092
872.55	467.89272
872.723	398.00948
872.895	667.3187
873.067	538.40733
873.24	487.60367
873.412	440.18028
873.584	361.93596
873.756	615.45795
873.928	782.89685
874.101	365.66639
874.273	486.24727
874.445	165.03989
874.617	307.36778
874.789	349.55882
874.961	355.60917
875.133	432.97191
875.305	562.96646
875.477	385.07579
875.649	235.05209
875.821	317.94442
875.993	692.2195
876.165	346.4705
876.337	498.55135
876.509	477.94912
876.681	443.04191
876.853	441.13836
877.025	685.14548
877.197	254.20955
877.369	259.22184
877.541	408.97408
877.712	75.03534
877.884	205.01353
878.056	488.03223
878.228	222.23061
878.4	481.7056
878.571	229.97748
878.743	137.91768
878.915	305.37373
879.086	166.73533
879.258	191.01469
879.43	184.80526
879.601	153.78886
879.773	140.68003
879.945	28.58516
880.116	52.41881
880.288	29.99625
880.459	34.70112
880.631	24.36382
880.802	31.20888
880.974	29.59095
881.145	18.68475
881.317	26.87921
881.488	21.13888
881.66	23.40182
881.831	21.56027
882.002	30.53428
882.174	23.39178
882.345	29.84303
882.517	18.56113
882.688	39.84291
882.859	31.11315
883.03	55.09594
883.202	53.09892
883.373	50.21014
883.544	50.61702
883.715	79.33618
883.887	73.71555
884.058	69.2062
884.229	90.53726
884.4	92.89077
884.571	119.85984
884.742	94.9825
884.914	100.67019
885.085	147.98696
885.256	194.57215
885.427	160.975
885.598	176.56359
885.769	192.00962
885.94	196.93548
886.111	120.22903
886.282	198.7394
886.453	194.63095
886.624	154.11511
886.795	244.55579
886.966	211.77955
887.136	268.05231
887.307	189.9726
887.478	386.54862
887.649	327.91321
887.82	361.62155
887.991	236.86918
888.161	428.44359
888.332	371.14253
888.503	221.77456
888.674	446.78679
888.844	709.23948
889.015	658.25558
889.186	294.99267
889.356	634.43487
889.527	317.45287
889.698	985.69462
889.868	286.99542
890.039	550.75017
890.209	360.92511
890.38	584.80382
890.551	473.75651
890.721	784.42175
890.892	534.0264
891.062	1089.64732
891.233	522.60422
891.403	749.54621
891.574	515.33557
891.744	382.81485
891.914	339.16448
892.085	507.47132
892.255	111.31455
892.425	508.17627
892.596	415.87462
892.766	461.45623
892.936	757.49017
893.107	456.63804
893.277	204.86306
893.447	157.25981
893.618	136.83376
893.788	211.61598
893.958	118.24201
894.128	93.01373
894.298	116.86628
894.468	147.04517
894.639	64.77575
894.809	42.96606
894.979	68.42803
895.149	95.93381
895.319	73.82058
895.489	107.70977
895.659	147.8169
895.829	82.81104
895.999	94.33485
896.169	80.05989
896.339	120.58524
896.509	250.4004
896.679	235.52341
896.849	268.31829
897.019	346.32315
897.189	333.08621
897.358	266.03257
897.528	520.7266
897.698	207.44961
897.868	361.93206
898.038	841.8126
898.208	951.63034
898.377	275.83965
898.547	1905.31519
898.717	3341.25083
898.886	872.46667
899.056	795.02015
899.226	2045.1483
899.395	2233.21168
899.565	2469.63264
899.735	4335.16633
899.904	1544.96007
900.074	5661.78139
900.244	616.81733
900.413	3273.50929
900.583	834.96523
900.752	-1761.4689
900.922	1084.35655
901.091	391.95623
901.261	2103.24715
901.43	1120.31525
901.599	2801.77977
901.769	2803.73868
901.938	2651.5217
902.108	894.33953
902.277	1429.86895
902.446	453.56404
902.616	656.27303
902.785	553.15488
902.954	790.51482
903.124	499.75815
903.293	362.47093
903.462	139.20315
903.631	214.73486
903.801	150.56096
903.97	72.13134
904.139	106.40878
904.308	87.14504
904.477	70.46458
904.646	36.89271
904.816	55.30204
904.985	104.42769
905.154	162.95947
