Data from WindowProjectSample_Transmission__17__00017__020890005481357532.txt Node

Date: Mon May 05 17:07:11 EDT 2025
User: jessi
Spectrometer: SR400872
Trigger mode: 0
Integration Time (sec): 5.000010E-1
Scans to average: 20
Electric dark correction enabled: true
Nonlinearity correction enabled: true
Boxcar width: 0
XAxis mode: Wavelengths
Number of Pixels in Spectrum: 3648
>>>>>Begin Spectral Data<<<<<
184.909	21632.64796
185.132	-5032.04718
185.355	-3087.54574
185.578	-18474.08193
185.801	957.13176
186.024	10179.26939
186.247	-1853.27574
186.47	1377.55392
186.693	430.35153
186.916	268.36358
187.139	-3891.0118
187.362	3571.55993
187.585	4120.56253
187.808	3615.58878
188.031	16.01414
188.254	-57449.73198
188.476	-1696.73557
188.699	6423.00786
188.922	675.70369
189.145	-15070.93094
189.368	-678.41726
189.591	-1559.63344
189.813	3293.08238
190.036	-51159.81435
190.259	-886.4014
190.482	-4611.09782
190.705	7097.05594
190.927	-2498.74835
191.15	13145.73979
191.373	3605.59687
191.595	-8859.54043
191.818	-4296.17099
192.041	-7317.57053
192.263	-3457.74974
192.486	-971.35026
192.709	-3827.75634
192.931	7915.79099
193.154	-29013.50612
193.377	-3007.54515
193.599	-2756.7315
193.822	-9501.24586
194.044	-2259.41608
194.267	1227.03785
194.489	322.62235
194.712	-43134.21196
194.934	-31436.96069
195.157	1089.76206
195.379	1545.85363
195.602	-7042.66467
195.824	-1312.75669
196.047	-8953.84653
196.269	2680.93637
196.492	-6712.89034
196.714	28452.39744
196.936	-8558.14454
197.159	-1221.16022
197.381	1234.75732
197.604	371.97444
197.826	12403.43008
198.048	-11037.2903
198.271	-2646.8146
198.493	7615.49187
198.715	2339.65604
198.938	-517.23592
199.16	7077.55846
199.382	-101830.99389
199.604	2560.61183
199.827	-1091.48827
200.049	-2795.48147
200.271	14459.49687
200.493	1264.57428
200.715	-37531.34607
200.938	-6149.19278
201.16	-4127.70543
201.382	21799.87473
201.604	2414.26819
201.826	2352.99407
202.048	-1917.89903
202.27	-2090.43601
202.492	-36140.31057
202.715	2867.60537
202.937	-4637.41221
203.159	-6460.08099
203.381	1463.71287
203.603	7035.61164
203.825	6754.83226
204.047	2165.48584
204.269	-2797.17474
204.491	2225.67002
204.713	6103.36737
204.935	-475723.87377
205.156	1171.19102
205.378	-3160.23171
205.6	1595.71388
205.822	156992.11769
206.044	-1065.01313
206.266	1561.90421
206.488	4695.31683
206.71	-5168.94872
206.932	1065.28035
207.153	12572.11056
207.375	-7000.06222
207.597	-37906.92382
207.819	-2819.1331
208.041	2506.10728
208.262	498.69521
208.484	712.34668
208.706	-834.29425
208.927	-817.86169
209.149	619.02423
209.371	-3012.07367
209.593	-303.06307
209.814	-784.20208
210.036	578.29801
210.258	-669.13803
210.479	1755.78765
210.701	1674.37788
210.922	3368.89512
211.144	-4343.62475
211.366	2150.88756
211.587	8143.99043
211.809	-8165.1895
212.03	2487.58605
212.252	462.81881
212.473	2126.50333
212.695	-6383.91472
212.916	2869.15659
213.138	-716.5689
213.359	3828.61949
213.581	5544.34953
213.802	-693.91533
214.024	1149.61174
214.245	2155.08142
214.466	2146.75399
214.688	-3161.17151
214.909	-1287.49863
215.131	-1670.62761
215.352	-3253.13562
215.573	15004.87369
215.795	5140.16077
216.016	5575.9154
216.237	918.09102
216.459	3586.47481
216.68	1795.78596
216.901	5253.81605
217.122	-3080.18943
217.344	-12392.85198
217.565	3535.49691
217.786	8797.37465
218.007	15701.4931
218.228	-796.83734
218.45	5954.14978
218.671	732.17884
218.892	37607.65221
219.113	1567.66195
219.334	-288.76844
219.555	9613.92165
219.776	3151.42295
219.997	23019.48121
220.219	2965.43692
220.44	-10656.7158
220.661	431.29499
220.882	1462.187
221.103	-1047.12686
221.324	2219.31109
221.545	2348.83812
221.766	-8698.6657
221.987	973.30441
222.208	1584.58573
222.429	4405.83539
222.65	248.35468
222.87	17312.1601
223.091	735.19048
223.312	582.82155
223.533	1359.45247
223.754	1484.84072
223.975	1362.03514
224.196	2096.24317
224.417	1336.32717
224.637	597.56097
224.858	30.27797
225.079	1192.06023
225.3	698.95255
225.521	3746.12435
225.741	489.64011
225.962	524.09311
226.183	164.34475
226.404	678.25326
226.624	439.89088
226.845	662.22502
227.066	420.16985
227.286	246.31072
227.507	123.08066
227.728	115.33907
227.948	243.13565
228.169	78.5089
228.389	82.12517
228.61	48.77978
228.831	65.42165
229.051	1.53589
229.272	39.94552
229.492	57.4635
229.713	15.06068
229.933	37.51938
230.154	31.56324
230.374	54.0688
230.595	38.19281
230.815	25.4511
231.036	40.03635
231.256	-10.71823
231.477	69.17809
231.697	37.27889
231.917	38.77744
232.138	56.93591
232.358	115.1601
232.579	106.18782
232.799	17.53384
233.019	99.34281
233.24	115.45883
233.46	39.25103
233.68	63.8046
233.901	46.00735
234.121	29.03582
234.341	12.33289
234.561	-3.87112
234.782	23.66133
235.002	68.67876
235.222	-6.19066
235.442	67.77255
235.662	36.92015
235.883	62.90163
236.103	50.91594
236.323	36.7753
236.543	28.83191
236.763	40.51099
236.983	43.54726
237.203	44.20124
237.423	57.76555
237.643	91.13634
237.864	73.90724
238.084	18.42014
238.304	27.39811
238.524	46.11545
238.744	40.90027
238.964	74.30851
239.184	62.84275
239.404	65.91521
239.624	33.79422
239.843	60.45595
240.063	34.30925
240.283	22.27327
240.503	25.36346
240.723	25.04504
240.943	14.86576
241.163	19.79196
241.383	14.74661
241.603	7.2924
241.822	9.69
242.042	6.5644
242.262	8.00405
242.482	9.72145
242.702	10.45323
242.921	2.63496
243.141	7.0207
243.361	6.5852
243.581	9.1862
243.8	7.4129
244.02	5.33746
244.24	9.63694
244.459	9.16515
244.679	17.51674
244.899	11.32216
245.118	12.60863
245.338	12.17496
245.558	14.47073
245.777	8.21468
245.997	11.09334
246.216	10.26082
246.436	6.38077
246.655	4.7475
246.875	3.11846
247.094	6.80565
247.314	2.17475
247.533	3.53492
247.753	4.41526
247.972	3.43748
248.192	1.20701
248.411	1.91249
248.631	3.42938
248.85	4.8373
249.07	3.8463
249.289	5.76852
249.508	5.00465
249.728	7.69497
249.947	6.77728
250.166	9.25912
250.386	4.33876
250.605	7.33819
250.824	11.1229
251.044	8.06776
251.263	28.84459
251.482	15.48251
251.701	11.37937
251.921	-0.15034
252.14	2.97164
252.359	3.97933
252.578	9.94342
252.798	3.62285
253.017	8.84871
253.236	3.82804
253.455	5.7576
253.674	10.28886
253.893	5.18015
254.112	7.9012
254.331	11.09532
254.551	8.88097
254.77	3.36738
254.989	13.4038
255.208	9.72022
255.427	15.69298
255.646	11.3805
255.865	21.52813
256.084	9.41048
256.303	10.64477
256.522	14.24873
256.741	3.38719
256.96	2.82392
257.179	8.30696
257.397	10.64488
257.616	5.71401
257.835	6.51583
258.054	14.98046
258.273	10.44642
258.492	11.42777
258.711	6.83509
258.93	3.06466
259.148	4.82025
259.367	4.54035
259.586	5.68567
259.805	2.28415
260.023	5.21788
260.242	3.98922
260.461	2.74291
260.68	1.34624
260.898	4.45997
261.117	1.31237
261.336	1.03611
261.554	3.44065
261.773	3.49272
261.992	0.75202
262.21	3.36475
262.429	3.62483
262.648	7.44603
262.866	8.15029
263.085	5.96758
263.303	4.77513
263.522	8.93285
263.74	8.75233
263.959	15.57095
264.178	7.43138
264.396	6.47043
264.615	4.96697
264.833	10.85997
265.051	8.79621
265.27	11.23189
265.488	10.96174
265.707	6.2666
265.925	11.06512
266.144	4.70379
266.362	5.74765
266.58	5.6894
266.799	5.40809
267.017	6.17317
267.235	5.55175
267.454	3.16337
267.672	1.89486
267.89	4.34189
268.109	4.50627
268.327	4.40393
268.545	1.08654
268.763	3.76212
268.982	1.39839
269.2	4.45454
269.418	2.9221
269.636	1.9346
269.854	4.74967
270.073	3.05895
270.291	1.89543
270.509	2.0213
270.727	4.4292
270.945	7.01417
271.163	7.16321
271.381	1.47195
271.599	3.24258
271.817	5.48762
272.036	1.75458
272.254	3.06431
272.472	2.42058
272.69	2.44631
272.908	2.36245
273.126	4.47534
273.344	5.42663
273.562	1.72374
273.779	2.62307
273.997	3.86046
274.215	4.20387
274.433	2.92099
274.651	4.5008
274.869	4.79922
275.087	2.98349
275.305	4.13422
275.523	2.68198
275.74	2.70285
275.958	5.59973
276.176	8.37873
276.394	2.82317
276.612	3.21159
276.829	3.38321
277.047	2.69666
277.265	3.01652
277.483	3.54384
277.7	4.42675
277.918	3.3377
278.136	6.55318
278.353	2.94589
278.571	1.9554
278.789	4.61109
279.006	0.61549
279.224	3.08906
279.442	5.02582
279.659	3.57516
279.877	2.4362
280.094	5.80754
280.312	1.13459
280.529	3.5259
280.747	1.06394
280.964	2.6147
281.182	6.08288
281.399	2.83717
281.617	3.882
281.834	2.62436
282.052	1.94437
282.269	3.14875
282.487	2.38357
282.704	2.1893
282.921	2.30675
283.139	3.45954
283.356	4.13667
283.574	3.74952
283.791	1.9111
284.008	5.66378
284.226	3.02256
284.443	3.33113
284.66	4.65644
284.877	3.4865
285.095	2.1291
285.312	1.66187
285.529	1.05044
285.746	0.75977
285.964	2.03947
286.181	1.37833
286.398	1.97734
286.615	2.71688
286.832	2.62811
287.05	0.5647
287.267	1.81841
287.484	1.80668
287.701	2.54108
287.918	2.6336
288.135	2.68462
288.352	1.26292
288.569	1.53359
288.786	2.35804
289.003	2.17141
289.22	3.03662
289.437	1.71849
289.654	2.81492
289.871	3.05187
290.088	2.92581
290.305	2.30178
290.522	1.77742
290.739	2.03143
290.956	3.26357
291.173	3.58238
291.39	3.43222
291.607	2.46238
291.824	1.73147
292.04	1.26877
292.257	3.02603
292.474	3.31042
292.691	2.16982
292.908	1.07192
293.125	1.62451
293.341	1.14195
293.558	5.03613
293.775	1.9654
293.992	2.27835
294.208	0.9695
294.425	1.36544
294.642	2.03839
294.858	3.1228
295.075	0.72485
295.292	2.05627
295.508	2.47623
295.725	4.31632
295.942	2.07036
296.158	1.69045
296.375	2.56676
296.591	2.05696
296.808	2.32635
297.024	2.68123
297.241	2.9443
297.458	3.25422
297.674	1.18915
297.891	2.76478
298.107	2.59557
298.323	2.15964
298.54	4.37013
298.756	2.62792
298.973	1.97506
299.189	4.57902
299.406	2.8715
299.622	4.3462
299.838	4.43278
300.055	4.35131
300.271	2.53066
300.487	2.86934
300.704	3.23306
300.92	2.80609
301.136	6.49868
301.353	4.58485
301.569	4.16396
301.785	4.52878
302.001	5.07799
302.218	4.62474
302.434	5.02629
302.65	3.41336
302.866	4.18081
303.083	6.92487
303.299	6.86489
303.515	5.01992
303.731	5.45844
303.947	3.82233
304.163	4.52563
304.379	5.21777
304.595	5.56828
304.812	4.62128
305.028	4.67096
305.244	5.13949
305.46	6.04365
305.676	6.31601
305.892	6.75135
306.108	6.2642
306.324	5.20843
306.54	7.42355
306.756	5.78895
306.972	5.9681
307.187	5.90048
307.403	6.90195
307.619	5.40994
307.835	6.92479
308.051	7.29813
308.267	5.2067
308.483	7.43265
308.699	6.60448
308.914	6.3046
309.13	6.19975
309.346	5.35877
309.562	5.73494
309.778	5.49895
309.993	7.14284
310.209	7.12073
310.425	5.79774
310.641	6.94072
310.856	6.14103
311.072	6.23891
311.288	6.99746
311.503	7.59111
311.719	5.83286
311.935	5.95279
312.15	7.86965
312.366	7.66078
312.581	7.74697
312.797	7.66043
313.013	8.05097
313.228	6.97972
313.444	7.07494
313.659	6.67384
313.875	7.67562
314.09	7.10193
314.306	8.3486
314.521	8.03922
314.737	7.94431
314.952	7.39487
315.168	7.59001
315.383	7.8095
315.599	7.06611
315.814	7.33043
316.029	8.25734
316.245	6.74962
316.46	5.92691
316.675	8.47676
316.891	9.08633
317.106	10.13891
317.321	7.61354
317.537	8.34959
317.752	8.51317
317.967	8.33509
318.183	6.80608
318.398	7.48952
318.613	8.47856
318.828	9.0284
319.043	8.45006
319.259	7.51629
319.474	7.82598
319.689	8.88548
319.904	6.2535
320.119	8.81111
320.334	8.09633
320.549	8.11772
320.765	8.91318
320.98	8.34621
321.195	8.14929
321.41	7.97868
321.625	8.56959
321.84	9.73869
322.055	9.21853
322.27	7.49744
322.485	6.96472
322.7	8.49972
322.915	8.85208
323.13	7.67065
323.345	9.7388
323.56	9.45581
323.775	8.90635
323.989	8.85838
324.204	8.49794
324.419	9.63373
324.634	7.48304
324.849	8.4023
325.064	11.71148
325.279	9.61453
325.493	9.01516
325.708	9.47321
325.923	7.93758
326.138	8.56786
326.352	10.13974
326.567	9.72705
326.782	8.36074
326.997	8.50549
327.211	9.26676
327.426	9.13467
327.641	8.56588
327.855	7.59477
328.07	9.22743
328.285	10.73114
328.499	8.30294
328.714	8.98396
328.928	9.08806
329.143	8.66077
329.358	9.77012
329.572	9.52972
329.787	10.12088
330.001	11.04329
330.216	7.73291
330.43	10.97831
330.645	10.01469
330.859	9.76067
331.074	7.96862
331.288	9.03116
331.503	10.37073
331.717	8.17304
331.931	9.08715
332.146	9.24122
332.36	10.82039
332.575	9.42036
332.789	9.26198
333.003	9.67118
333.218	9.80017
333.432	8.81658
333.646	10.07572
333.86	10.95761
334.075	10.66419
334.289	8.81361
334.503	8.00966
334.717	9.79761
334.932	9.37498
335.146	10.07505
335.36	8.52146
335.574	9.9829
335.788	9.80718
336.003	10.53146
336.217	10.23127
336.431	9.95093
336.645	9.10895
336.859	8.55183
337.073	9.35421
337.287	9.75243
337.501	8.3896
337.715	10.18691
337.929	10.37814
338.143	8.98959
338.357	9.68651
338.571	9.66918
338.785	10.72028
338.999	9.62961
339.213	9.61329
339.427	8.88028
339.641	11.16099
339.855	9.53282
340.069	9.10892
340.283	10.74063
340.497	11.42352
340.711	10.46771
340.924	10.10002
341.138	9.16774
341.352	8.89808
341.566	10.1069
341.78	8.80493
341.993	9.75849
342.207	9.44068
342.421	10.49077
342.635	9.97737
342.848	10.01309
343.062	8.15794
343.276	9.67247
343.49	11.7697
343.703	9.70438
343.917	11.19565
344.131	11.34157
344.344	9.54361
344.558	10.07194
344.771	9.06821
344.985	11.59611
345.199	11.86448
345.412	10.74659
345.626	10.92873
345.839	9.18545
346.053	9.69977
346.266	9.89172
346.48	11.00086
346.693	10.99259
346.907	10.76787
347.12	9.78521
347.334	10.64601
347.547	10.91517
347.76	10.50665
347.974	11.54251
348.187	10.67815
348.401	10.32483
348.614	9.7308
348.827	10.32401
349.041	10.91786
349.254	9.24889
349.467	10.04421
349.681	9.83849
349.894	9.72176
350.107	11.73833
350.32	12.45451
350.534	9.72375
350.747	10.49099
350.96	9.93397
351.173	10.24363
351.386	10.63967
351.6	10.28085
351.813	10.49909
352.026	10.53412
352.239	10.04056
352.452	10.33505
352.665	11.90558
352.878	10.703
353.092	12.47576
353.305	11.60072
353.518	11.17732
353.731	10.05017
353.944	11.93452
354.157	10.65735
354.37	10.68703
354.583	10.30595
354.796	10.06684
355.009	11.91599
355.222	11.57448
355.435	11.09066
355.647	12.24306
355.86	10.73842
356.073	11.38955
356.286	10.89182
356.499	12.11463
356.712	11.96582
356.925	12.03858
357.138	12.22296
357.35	11.11486
357.563	11.39549
357.776	11.91251
357.989	11.72128
358.201	12.24752
358.414	12.10139
358.627	13.01205
358.84	11.71934
359.052	10.86216
359.265	11.39118
359.478	12.64431
359.69	10.07612
359.903	12.621
360.116	12.8689
360.328	10.91693
360.541	12.66752
360.753	11.52813
360.966	11.81322
361.179	12.16293
361.391	11.92572
361.604	11.95389
361.816	12.18223
362.029	12.2657
362.241	11.98133
362.454	12.52391
362.666	12.07207
362.879	13.07751
363.091	12.466
363.304	12.33481
363.516	12.46554
363.728	11.88373
363.941	12.87267
364.153	12.66189
364.366	11.11016
364.578	11.70373
364.79	12.64795
365.003	12.75115
365.215	12.00139
365.427	12.96874
365.639	13.26874
365.852	12.6763
366.064	14.03963
366.276	12.5441
366.488	12.80792
366.701	12.46128
366.913	12.51975
367.125	12.69133
367.337	12.13034
367.549	12.43526
367.762	12.76806
367.974	12.77559
368.186	12.65091
368.398	13.52539
368.61	12.99516
368.822	13.35403
369.034	12.60886
369.246	13.40159
369.458	15.11102
369.67	12.35868
369.882	14.07826
370.094	11.72497
370.306	13.95454
370.518	12.87073
370.73	12.86812
370.942	12.76041
371.154	13.19236
371.366	13.04126
371.578	13.65382
371.79	13.28189
372.002	14.27
372.214	15.14541
372.425	13.36334
372.637	14.82841
372.849	13.72167
373.061	12.32397
373.273	13.90068
373.484	13.88869
373.696	14.2745
373.908	12.19897
374.12	14.36271
374.331	14.05503
374.543	13.12714
374.755	13.19224
374.967	13.7895
375.178	14.5702
375.39	13.45925
375.602	14.15999
375.813	12.90894
376.025	13.40714
376.236	14.27478
376.448	14.50934
376.66	14.11342
376.871	14.15729
377.083	15.1568
377.294	15.81952
377.506	14.1269
377.717	15.57805
377.929	14.76725
378.14	14.58206
378.352	15.08148
378.563	15.15534
378.775	15.77567
378.986	14.13214
379.197	14.82556
379.409	14.18885
379.62	15.1848
379.832	15.16564
380.043	14.68421
380.254	15.11123
380.466	14.07206
380.677	16.98713
380.888	16.32654
381.1	16.86001
381.311	16.98645
381.522	15.5049
381.733	17.17275
381.945	15.38188
382.156	15.16843
382.367	14.97011
382.578	17.26812
382.789	17.47183
383.001	14.88476
383.212	16.71766
383.423	16.52196
383.634	16.48026
383.845	16.21302
384.056	15.52651
384.267	15.81836
384.478	15.89162
384.69	15.26234
384.901	16.2426
385.112	16.17232
385.323	17.36087
385.534	16.5272
385.745	16.41572
385.956	16.35997
386.167	15.71595
386.378	16.66095
386.588	15.75354
386.799	15.73066
387.01	15.55787
387.221	16.99288
387.432	16.53547
387.643	17.71873
387.854	16.42892
388.065	16.31341
388.275	16.43846
388.486	16.25157
388.697	16.68405
388.908	16.36075
389.119	17.53005
389.329	17.71099
389.54	16.91338
389.751	16.99719
389.962	17.71192
390.172	17.08404
390.383	16.90845
390.594	16.45792
390.804	16.69313
391.015	16.68156
391.226	17.34878
391.436	17.64714
391.647	17.59529
391.858	17.79403
392.068	16.54144
392.279	16.86418
392.489	17.73998
392.7	18.30321
392.91	17.23499
393.121	17.18873
393.331	17.934
393.542	18.46138
393.752	18.36315
393.963	18.11044
394.173	18.03386
394.384	18.23647
394.594	17.97874
394.804	17.38538
395.015	18.23888
395.225	18.42563
395.436	17.63464
395.646	18.4734
395.856	18.01871
396.067	17.17376
396.277	18.79439
396.487	18.44217
396.697	18.49481
396.908	18.37602
397.118	18.60008
397.328	18.32394
397.538	18.99613
397.749	17.80321
397.959	18.74672
398.169	18.50202
398.379	17.56202
398.589	18.79935
398.8	18.58962
399.01	18.64794
399.22	18.45342
399.43	20.02203
399.64	18.65369
399.85	19.05594
400.06	18.90959
400.27	18.20626
400.48	18.77267
400.69	19.71912
400.9	18.50621
401.11	18.18518
401.32	19.22291
401.53	18.39865
401.74	19.86531
401.95	19.22472
402.16	18.65008
402.37	19.13185
402.58	18.65599
402.79	19.18003
403	19.62515
403.209	18.45421
403.419	19.77294
403.629	18.68557
403.839	19.8163
404.049	19.80268
404.258	19.12784
404.468	18.85562
404.678	19.93479
404.888	20.25826
405.097	19.37371
405.307	19.40867
405.517	20.11431
405.727	19.98174
405.936	19.50845
406.146	19.94505
406.356	20.58598
406.565	19.69325
406.775	19.57274
406.984	19.50713
407.194	20.96323
407.404	19.71408
407.613	20.2095
407.823	20.367
408.032	20.61261
408.242	20.4231
408.451	19.63659
408.661	19.66725
408.87	20.90124
409.08	19.41633
409.289	20.17969
409.499	20.21042
409.708	20.03883
409.918	18.87602
410.127	20.25142
410.336	21.08077
410.546	20.63998
410.755	20.2007
410.964	20.20517
411.174	19.87521
411.383	20.72548
411.592	20.70354
411.802	19.96013
412.011	20.86647
412.22	20.32968
412.429	21.53236
412.639	21.37649
412.848	21.15914
413.057	21.39002
413.266	21.11084
413.475	20.58938
413.685	20.84884
413.894	21.24335
414.103	21.26514
414.312	21.16239
414.521	20.42298
414.73	20.79734
414.939	22.11006
415.148	21.19401
415.357	21.02173
415.566	20.80496
415.776	20.63885
415.985	20.81623
416.194	21.58598
416.403	22.36552
416.611	20.45253
416.82	20.88462
417.029	21.32582
417.238	20.88826
417.447	20.89313
417.656	21.28085
417.865	21.00838
418.074	21.268
418.283	21.51631
418.492	22.13715
418.7	21.94014
418.909	23.37687
419.118	22.46564
419.327	23.17899
419.536	23.15544
419.744	23.69198
419.953	25.30099
420.162	25.92141
420.371	25.85923
420.579	27.18475
420.788	28.04235
420.997	28.28861
421.205	29.51318
421.414	29.11643
421.623	29.48377
421.831	29.12136
422.04	29.67145
422.249	28.56057
422.457	28.44102
422.666	27.15646
422.874	28.02403
423.083	27.92272
423.291	28.0871
423.5	28.23269
423.708	28.97096
423.917	29.5417
424.125	29.26704
424.334	29.23746
424.542	31.21761
424.751	30.93395
424.959	30.37369
425.167	29.96959
425.376	30.05716
425.584	27.73019
425.793	27.22477
426.001	26.02544
426.209	25.12505
426.418	23.64902
426.626	22.87525
426.834	22.67623
427.042	23.1266
427.251	22.71034
427.459	23.3989
427.667	23.11169
427.875	22.26987
428.084	22.67958
428.292	23.61278
428.5	23.26691
428.708	22.32543
428.916	22.34571
429.124	22.92032
429.333	22.67251
429.541	22.75046
429.749	22.90114
429.957	22.9692
430.165	24.56508
430.373	22.20194
430.581	23.01883
430.789	23.90112
430.997	22.84942
431.205	22.62453
431.413	23.32257
431.621	22.96797
431.829	23.5356
432.037	22.87978
432.245	23.3599
432.453	23.39936
432.661	23.18989
432.869	24.15161
433.076	22.91645
433.284	23.32823
433.492	23.88183
433.7	24.23313
433.908	23.43516
434.116	23.7421
434.323	23.98352
434.531	23.65739
434.739	24.09504
434.947	24.32018
435.154	24.13181
435.362	23.90074
435.57	23.60462
435.778	23.35793
435.985	23.86865
436.193	23.4967
436.401	24.35412
436.608	23.58123
436.816	23.41002
437.023	24.5393
437.231	24.55309
437.439	23.97639
437.646	23.94429
437.854	23.93224
438.061	24.13848
438.269	23.5896
438.476	24.22799
438.684	23.78408
438.891	23.71411
439.099	23.52599
439.306	23.31943
439.514	23.55378
439.721	24.97092
439.929	25.01227
440.136	26.27441
440.343	26.605
440.551	26.77976
440.758	28.5786
440.965	26.94417
441.173	26.83953
441.38	26.9547
441.587	25.85411
441.795	25.86096
442.002	24.9576
442.209	24.63982
442.416	24.78143
442.624	24.73483
442.831	24.49393
443.038	24.10652
443.245	23.82215
443.452	24.09928
443.66	24.6289
443.867	23.97778
444.074	23.90029
444.281	23.97983
444.488	24.0525
444.695	24.22706
444.902	24.20965
445.109	25.89524
445.316	26.11377
445.523	27.37564
445.73	28.27668
445.937	29.71367
446.144	30.58836
446.351	31.65701
446.558	30.43658
446.765	33.30558
446.972	31.71789
447.179	31.63318
447.386	31.8426
447.593	29.5708
447.8	30.36966
448.007	28.10078
448.214	26.59697
448.42	25.71685
448.627	25.50102
448.834	24.95805
449.041	24.78476
449.248	24.75181
449.454	25.29376
449.661	25.84638
449.868	24.62733
450.075	24.51131
450.281	23.86204
450.488	24.30299
450.695	24.39099
450.901	24.41522
451.108	24.47061
451.315	25.29141
451.521	24.62876
451.728	25.25461
451.935	24.46413
452.141	24.68011
452.348	24.83028
452.554	24.87656
452.761	24.63703
452.967	25.86622
453.174	25.07784
453.38	25.37948
453.587	24.4864
453.793	25.19196
454	25.72563
454.206	26.26703
454.413	25.60289
454.619	25.45536
454.825	24.89752
455.032	25.57536
455.238	25.66759
455.445	24.51372
455.651	25.36681
455.857	24.3011
456.064	24.95272
456.27	24.92533
456.476	24.87285
456.682	24.64949
456.889	25.37491
457.095	25.29558
457.301	26.44091
457.507	25.13099
457.714	25.14607
457.92	25.09277
458.126	24.65426
458.332	24.95756
458.538	24.78325
458.744	24.91788
458.951	24.99343
459.157	27.96234
459.363	28.19463
459.569	29.22876
459.775	30.28183
459.981	30.75107
460.187	31.75205
460.393	31.68563
460.599	31.59415
460.805	30.31074
461.011	28.5073
461.217	27.45626
461.423	26.66623
461.629	25.9166
461.835	26.24245
462.041	25.99781
462.247	26.86387
462.453	25.79849
462.658	25.7804
462.864	26.1685
463.07	25.86228
463.276	25.83477
463.482	25.8481
463.688	26.52287
463.893	25.32733
464.099	25.67631
464.305	26.71604
464.511	25.6087
464.716	25.79596
464.922	26.41358
465.128	25.41391
465.333	26.90183
465.539	26.35441
465.745	25.98072
465.95	26.14567
466.156	27.57472
466.362	26.49662
466.567	25.90944
466.773	25.81116
466.978	26.84444
467.184	25.63095
467.389	25.13835
467.595	26.30544
467.8	25.70349
468.006	26.95622
468.211	26.88642
468.417	25.71824
468.622	26.57677
468.828	26.45698
469.033	26.53874
469.239	27.76563
469.444	26.01062
469.649	26.89393
469.855	26.26723
470.06	26.32008
470.266	25.93035
470.471	26.77019
470.676	26.5395
470.881	25.50918
471.087	27.19777
471.292	27.93641
471.497	25.70096
471.703	26.32828
471.908	26.1441
472.113	26.39228
472.318	26.81827
472.523	25.87835
472.729	26.61283
472.934	26.74868
473.139	26.27093
473.344	26.68877
473.549	27.11672
473.754	26.23662
473.959	28.12307
474.164	26.18128
474.369	26.47652
474.575	26.99105
474.78	26.50875
474.985	26.18346
475.19	25.43985
475.395	26.10607
475.6	26.50512
475.804	27.27018
476.009	26.39104
476.214	26.39926
476.419	26.40912
476.624	25.75494
476.829	26.27921
477.034	26.90657
477.239	26.23186
477.444	26.98378
477.648	26.94426
477.853	27.00481
478.058	26.51025
478.263	26.3265
478.468	26.13518
478.672	26.36432
478.877	27.49867
479.082	27.47704
479.287	27.14733
479.491	26.90856
479.696	26.32269
479.901	27.10031
480.105	27.08224
480.31	26.43252
480.515	26.73058
480.719	27.87807
480.924	26.39697
481.128	26.08231
481.333	26.87046
481.538	26.76886
481.742	27.99153
481.947	30.00145
482.151	32.30755
482.356	34.91078
482.56	39.86846
482.765	44.59045
482.969	52.15996
483.174	58.97067
483.378	67.73977
483.582	72.07238
483.787	77.11499
483.991	80.46258
484.196	82.15739
484.4	82.28301
484.604	82.70082
484.809	77.84678
485.013	73.30982
485.217	67.01025
485.422	60.13671
485.626	54.34975
485.83	50.34004
486.034	47.87194
486.239	47.76425
486.443	48.6276
486.647	49.99486
486.851	52.05996
487.055	55.60845
487.26	57.12368
487.464	59.75633
487.668	60.27727
487.872	62.3342
488.076	62.34584
488.28	60.90994
488.484	57.98311
488.688	56.03966
488.892	53.01722
489.096	49.23789
489.3	45.8765
489.504	42.53817
489.708	39.74907
489.912	38.26341
490.116	36.9714
490.32	36.82325
490.524	38.8237
490.728	40.86509
490.932	43.56809
491.136	46.37746
491.34	49.06341
491.544	50.40332
491.748	51.73312
491.951	52.05402
492.155	51.56331
492.359	50.29309
492.563	47.36258
492.767	44.86824
492.97	40.58724
493.174	36.45887
493.378	33.13309
493.582	29.71308
493.785	27.91256
493.989	27.83226
494.193	27.69866
494.396	27.43099
494.6	27.99605
494.804	27.51137
495.007	27.2461
495.211	27.27025
495.414	27.32773
495.618	27.51886
495.822	28.08874
496.025	27.41086
496.229	27.79563
496.432	27.27366
496.636	27.62023
496.839	27.5863
497.043	28.4378
497.246	28.04411
497.45	27.90838
497.653	28.13801
497.856	28.07178
498.06	27.60717
498.263	27.85475
498.467	27.81314
498.67	28.55421
498.873	28.21281
499.077	28.01302
499.28	27.87958
499.483	28.20182
499.686	28.44939
499.89	28.18472
500.093	28.52024
500.296	27.79445
500.499	28.95424
500.703	28.06882
500.906	28.41851
501.109	29.01374
501.312	28.13633
501.515	27.99877
501.719	28.30262
501.922	28.64619
502.125	28.23865
502.328	28.05829
502.531	27.58777
502.734	28.12641
502.937	27.32818
503.14	28.21257
503.343	27.63996
503.546	27.98609
503.749	27.80356
503.952	28.61338
504.155	27.86968
504.358	28.51806
504.561	28.33284
504.764	27.68331
504.967	28.36975
505.17	28.25348
505.373	29.09058
505.576	28.45711
505.778	28.76958
505.981	27.98056
506.184	28.87582
506.387	27.43545
506.59	29.33253
506.793	28.89332
506.995	28.56533
507.198	27.47926
507.401	28.64835
507.604	28.56855
507.806	27.88652
508.009	27.97778
508.212	28.79761
508.414	28.10957
508.617	28.21633
508.82	28.47163
509.022	29.34463
509.225	28.68594
509.427	27.91085
509.63	29.18699
509.833	28.67867
510.035	28.43272
510.238	28.06505
510.44	29.29291
510.643	27.69222
510.845	29.50998
511.048	28.94074
511.25	28.42231
511.453	28.56162
511.655	28.94511
511.858	28.42295
512.06	29.06588
512.262	28.83316
512.465	29.11535
512.667	28.56569
512.869	28.3282
513.072	29.04742
513.274	29.39706
513.476	29.12043
513.679	29.27839
513.881	28.46935
514.083	29.62024
514.286	28.58131
514.488	28.52677
514.69	28.43038
514.892	28.23089
515.094	29.23072
515.297	28.50924
515.499	28.93282
515.701	28.49909
515.903	29.61333
516.105	29.59573
516.307	29.11078
516.509	27.92744
516.711	27.99571
516.913	28.76068
517.116	28.65204
517.318	28.36079
517.52	29.11867
517.722	28.99368
517.924	28.25008
518.126	29.12328
518.328	29.02899
518.529	30.03071
518.731	31.20326
518.933	29.76077
519.135	30.06652
519.337	30.45048
519.539	29.63769
519.741	28.73444
519.943	29.19332
520.145	29.26005
520.346	29.57668
520.548	29.26531
520.75	29.46805
520.952	29.1971
521.153	29.36238
521.355	29.42388
521.557	28.76543
521.759	29.27183
521.96	29.18693
522.162	28.60365
522.364	29.73789
522.565	28.83575
522.767	29.35167
522.969	29.66565
523.17	29.35379
523.372	29.24733
523.573	28.88551
523.775	29.00507
523.977	28.78614
524.178	29.94534
524.38	28.70495
524.581	29.30364
524.783	28.68917
524.984	29.1712
525.186	29.21069
525.387	30.44103
525.589	31.09627
525.79	31.90931
525.991	32.39006
526.193	33.42093
526.394	33.2263
526.596	34.32229
526.797	35.03351
526.998	34.82759
527.2	36.81554
527.401	40.404
527.602	43.89653
527.803	49.6036
528.005	54.12178
528.206	58.47487
528.407	61.92421
528.608	64.17598
528.81	65.54098
529.011	65.7811
529.212	66.99764
529.413	64.4408
529.614	61.008
529.815	57.03246
530.017	52.32619
530.218	46.80774
530.419	42.19316
530.62	39.50996
530.821	36.98594
531.022	34.4301
531.223	34.46639
531.424	33.32178
531.625	33.56978
531.826	33.04761
532.027	34.3552
532.228	36.67606
532.429	38.15485
532.63	40.12997
532.831	42.65996
533.032	43.78485
533.233	45.41563
533.433	45.35296
533.634	46.02009
533.835	45.08602
534.036	43.95835
534.237	42.0295
534.438	39.64513
534.638	36.36759
534.839	34.06968
535.04	32.34667
535.241	30.68981
535.441	31.07945
535.642	30.70654
535.843	30.6508
536.043	31.24173
536.244	31.85025
536.445	32.50208
536.645	33.57726
536.846	33.48417
537.047	33.6437
537.247	32.53507
537.448	31.78354
537.648	30.88483
537.849	29.99348
538.049	29.933
538.25	30.33485
538.451	30.04739
538.651	29.29715
538.851	29.93505
539.052	30.24014
539.252	29.86464
539.453	29.5156
539.653	29.45023
539.854	29.18561
540.054	29.46181
540.254	33.18599
540.455	36.55598
540.655	39.06096
540.855	43.33821
541.056	46.19725
541.256	47.58064
541.456	49.62152
541.657	50.38722
541.857	50.90608
542.057	49.65252
542.257	48.16811
542.458	47.14679
542.658	44.64837
542.858	41.21619
543.058	38.84047
543.258	36.99364
543.458	34.43066
543.659	32.79203
543.859	32.57466
544.059	31.48626
544.259	30.44545
544.459	30.81151
544.659	30.03568
544.859	30.35179
545.059	29.94694
545.259	30.55445
545.459	30.13276
545.659	30.48646
545.859	30.08734
546.059	30.24212
546.259	29.78007
546.459	29.53917
546.659	29.64566
546.859	30.5459
547.059	30.35849
547.258	30.48921
547.458	30.55282
547.658	29.83582
547.858	29.95601
548.058	30.45565
548.258	30.21815
548.457	30.02507
548.657	31.67404
548.857	30.10948
549.057	30.90061
549.256	30.54139
549.456	29.85259
549.656	29.18843
549.855	31.43125
550.055	29.78676
550.255	31.24412
550.454	30.1839
550.654	30.43735
550.853	30.87345
551.053	30.49767
551.253	30.14988
551.452	30.36044
551.652	29.21259
551.851	29.04342
552.051	29.85559
552.25	29.51119
552.45	29.56113
552.649	29.73927
552.849	29.53109
553.048	30.06424
553.248	30.5999
553.447	29.56798
553.646	30.69194
553.846	31.68288
554.045	31.02771
554.244	29.58271
554.444	30.97012
554.643	29.60052
554.842	31.15962
555.042	31.35649
555.241	29.55773
555.44	29.49196
555.64	30.47913
555.839	31.10859
556.038	30.40652
556.237	29.50876
556.436	30.09104
556.636	30.46126
556.835	29.55355
557.034	31.14588
557.233	29.95455
557.432	29.02297
557.631	30.46282
557.83	29.91882
558.029	29.78522
558.228	29.68075
558.427	29.56854
558.626	30.50036
558.825	29.50493
559.024	29.73535
559.223	31.11073
559.422	29.95019
559.621	30.41525
559.82	28.46949
560.019	30.01793
560.218	29.77385
560.417	28.41795
560.616	29.67713
560.815	32.24771
561.014	28.99407
561.212	31.13251
561.411	30.30945
561.61	29.32506
561.809	29.96302
562.008	31.327
562.206	29.95205
562.405	30.72046
562.604	30.14933
562.803	30.40706
563.001	29.85386
563.2	29.26511
563.399	30.43553
563.597	29.4261
563.796	29.92993
563.995	29.36596
564.193	30.75506
564.392	29.88488
564.59	31.40499
564.789	28.97467
564.988	29.71473
565.186	30.089
565.385	29.9309
565.583	29.68691
565.782	30.16919
565.98	29.87451
566.179	29.98846
566.377	29.61417
566.575	29.71246
566.774	31.26165
566.972	30.72884
567.171	31.83733
567.369	31.42141
567.567	30.66578
567.766	30.61901
567.964	29.27173
568.162	30.924
568.361	31.26147
568.559	30.15333
568.757	30.38818
568.956	30.23168
569.154	30.51893
569.352	30.73718
569.55	30.24743
569.748	30.30645
569.947	29.73558
570.145	29.61535
570.343	29.64074
570.541	31.31903
570.739	29.45641
570.937	30.10017
571.135	30.27103
571.333	31.67821
571.532	31.59825
571.73	30.45836
571.928	31.1248
572.126	30.66311
572.324	30.09441
572.522	31.24362
572.72	32.32384
572.918	30.55978
573.116	30.94786
573.313	30.38433
573.511	30.57123
573.709	30.12072
573.907	31.13423
574.105	30.28337
574.303	29.43999
574.501	29.49639
574.699	30.82906
574.896	30.63556
575.094	30.84337
575.292	29.61681
575.49	31.07706
575.688	30.51288
575.885	31.50551
576.083	32.29874
576.281	31.09546
576.478	30.26823
576.676	31.24053
576.874	29.76452
577.071	30.46362
577.269	32.29559
577.467	30.7026
577.664	30.57664
577.862	31.30152
578.059	29.93355
578.257	31.15589
578.455	30.31074
578.652	30.65762
578.85	29.30155
579.047	30.57962
579.245	30.31649
579.442	30.40282
579.64	30.27813
579.837	29.16037
580.034	32.71399
580.232	30.46939
580.429	29.64891
580.627	31.03606
580.824	31.41854
581.021	31.04559
581.219	30.09902
581.416	30.04767
581.613	31.51294
581.811	31.54093
582.008	29.84237
582.205	31.46636
582.402	31.11555
582.6	32.3018
582.797	30.6756
582.994	30.98518
583.191	31.126
583.388	30.31432
583.586	31.21897
583.783	31.48715
583.98	29.95771
584.177	30.96264
584.374	28.68829
584.571	30.35376
584.768	30.29611
584.965	30.19316
585.162	31.02786
585.359	31.87692
585.556	30.61603
585.753	30.81723
585.95	29.58996
586.147	29.72107
586.344	31.03659
586.541	30.50527
586.738	29.58815
586.935	30.40983
587.132	30.25203
587.329	31.22442
587.526	30.49426
587.722	34.55151
587.919	29.43089
588.116	30.84793
588.313	31.62994
588.51	32.27562
588.706	30.36625
588.903	31.08648
589.1	31.31091
589.297	32.80182
589.493	30.62296
589.69	31.11992
589.887	30.35273
590.083	29.52436
590.28	30.10269
590.477	31.52509
590.673	31.31835
590.87	31.88316
591.067	30.42658
591.263	31.0143
591.46	30.92937
591.656	30.30869
591.853	31.96074
592.049	30.07907
592.246	30.39452
592.442	31.41628
592.639	31.76351
592.835	30.0014
593.032	30.96132
593.228	29.60718
593.425	29.63369
593.621	29.4596
593.817	31.04456
594.014	29.98317
594.21	31.08452
594.406	31.75401
594.603	31.28036
594.799	30.00399
594.995	28.90729
595.192	31.72911
595.388	30.22993
595.584	30.22062
595.78	29.55405
595.977	32.90377
596.173	31.98939
596.369	30.13358
596.565	29.96025
596.761	29.58516
596.957	31.85331
597.154	30.35831
597.35	30.44133
597.546	30.54866
597.742	31.70314
597.938	31.44002
598.134	30.78955
598.33	31.44992
598.526	32.40435
598.722	31.35047
598.918	32.83268
599.114	31.48803
599.31	30.13429
599.506	31.05912
599.702	30.02216
599.898	30.93581
600.094	31.37904
600.29	31.44848
600.485	31.53804
600.681	30.03387
600.877	32.41617
601.073	30.88415
601.269	32.57786
601.465	32.0641
601.66	29.71398
601.856	29.20586
602.052	32.63132
602.248	30.44503
602.443	29.27642
602.639	29.64413
602.835	30.11167
603.03	29.89174
603.226	31.4538
603.422	29.87627
603.617	30.61862
603.813	30.72343
604.009	30.5167
604.204	31.86204
604.4	29.59626
604.595	31.74492
604.791	30.35142
604.986	31.29947
605.182	30.47349
605.377	31.05917
605.573	31.05545
605.768	31.2281
605.964	32.04297
606.159	32.14503
606.355	32.09564
606.55	31.04886
606.746	32.07886
606.941	31.18155
607.136	32.91688
607.332	33.7415
607.527	30.13669
607.722	31.30054
607.918	30.68848
608.113	30.22653
608.308	31.80956
608.503	31.44019
608.699	31.31499
608.894	31.40286
609.089	30.30191
609.284	31.42003
609.479	31.0009
609.675	32.10708
609.87	31.45095
610.065	32.31703
610.26	32.54833
610.455	32.5223
610.65	32.01277
610.845	32.41067
611.04	32.85061
611.235	31.98243
611.43	31.90567
611.625	31.03615
611.82	33.21068
612.015	31.19699
612.21	33.5135
612.405	30.39248
612.6	33.44256
612.795	33.38631
612.99	32.22482
613.185	30.59422
613.38	31.04297
613.575	31.73448
613.77	34.86048
613.965	30.1807
614.159	31.11818
614.354	33.15616
614.549	32.65938
614.744	32.28248
614.938	30.37658
615.133	30.26399
615.328	33.02748
615.523	32.83322
615.717	34.58143
615.912	31.0711
616.107	31.71994
616.301	31.04202
616.496	31.10615
616.691	33.24449
616.885	32.43607
617.08	34.95216
617.274	32.5878
617.469	33.74491
617.664	32.5296
617.858	31.18224
618.053	32.18834
618.247	31.67773
618.442	29.38204
618.636	33.53459
618.831	30.90449
619.025	31.11068
619.219	34.7905
619.414	28.56295
619.608	31.50753
619.803	31.28582
619.997	34.07253
620.191	32.96614
620.386	32.10956
620.58	31.62207
620.774	29.63126
620.969	30.19589
621.163	32.00365
621.357	30.74645
621.551	31.36963
621.746	31.99267
621.94	31.59746
622.134	35.58332
622.328	34.13978
622.522	30.27527
622.716	33.00416
622.911	32.99264
623.105	32.93894
623.299	32.54805
623.493	35.4287
623.687	30.96247
623.881	30.99399
624.075	32.33292
624.269	33.39312
624.463	29.62055
624.657	30.21661
624.851	32.27146
625.045	32.88049
625.239	33.13102
625.433	31.50447
625.627	34.20435
625.821	31.41911
626.015	30.99812
626.209	32.32069
626.403	30.24241
626.596	32.44664
626.79	33.18548
626.984	31.05831
627.178	32.76732
627.372	32.7517
627.565	33.20694
627.759	31.03557
627.953	31.25158
628.147	32.58172
628.34	33.34917
628.534	34.88006
628.728	31.97566
628.921	33.18209
629.115	33.09323
629.309	33.511
629.502	33.55347
629.696	32.27495
629.89	32.50934
630.083	32.61818
630.277	32.67761
630.47	34.03335
630.664	31.98524
630.857	30.32771
631.051	33.23459
631.244	33.74458
631.438	33.2044
631.631	31.34152
631.825	33.9092
632.018	32.94374
632.212	34.42793
632.405	33.65718
632.598	31.14753
632.792	32.38099
632.985	29.30022
633.178	31.87029
633.372	32.36827
633.565	31.88862
633.758	34.08395
633.952	31.37324
634.145	31.29229
634.338	32.45222
634.531	31.77853
634.724	31.61833
634.918	32.80002
635.111	32.19757
635.304	32.24347
635.497	35.70354
635.69	32.75172
635.883	34.20079
636.077	31.36882
636.27	33.36397
636.463	32.72483
636.656	33.13287
636.849	32.27075
637.042	33.40362
637.235	35.00672
637.428	33.56823
637.621	33.13191
637.814	34.58691
638.007	34.60497
638.2	34.43361
638.393	34.91965
638.586	30.49854
638.778	31.94061
638.971	32.45153
639.164	34.80049
639.357	32.89536
639.55	34.47157
639.743	33.72972
639.935	33.29768
640.128	35.83428
640.321	34.04935
640.514	33.00842
640.707	36.00655
640.899	33.52983
641.092	30.12895
641.285	48.20892
641.477	29.65793
641.67	36.75434
641.863	34.79487
642.055	33.15849
642.248	32.58826
642.441	32.35996
642.633	33.9331
642.826	35.15297
643.018	34.72391
643.211	35.76184
643.403	36.38577
643.596	36.56746
643.788	35.41513
643.981	32.24402
644.173	34.10088
644.366	32.69653
644.558	30.41187
644.751	34.15945
644.943	30.57342
645.135	35.46848
645.328	35.81164
645.52	33.82779
645.712	34.82202
645.905	37.79273
646.097	31.24419
646.289	33.26592
646.482	36.74216
646.674	31.84852
646.866	35.12707
647.058	33.91184
647.251	31.30634
647.443	32.78619
647.635	32.88541
647.827	31.33205
648.019	31.59767
648.211	32.69029
648.404	33.04347
648.596	36.15525
648.788	33.89931
648.98	33.57381
649.172	33.91293
649.364	34.04746
649.556	30.85982
649.748	37.83606
649.94	32.26864
650.132	34.33331
650.324	31.8239
650.516	32.29858
650.708	34.98903
650.9	31.28036
651.092	30.96769
651.284	31.80672
651.476	31.64679
651.667	34.973
651.859	35.81418
652.051	33.19955
652.243	34.05691
652.435	32.84066
652.627	34.79122
652.818	34.49456
653.01	30.91766
653.202	32.0958
653.394	32.85355
653.585	34.68808
653.777	41.12414
653.969	36.06142
654.16	35.741
654.352	31.69837
654.544	33.50902
654.735	35.44454
654.927	34.19452
655.118	35.93685
655.31	34.66345
655.502	35.7629
655.693	33.03562
655.885	34.74144
656.076	36.5614
656.268	34.09995
656.459	36.44917
656.651	35.99212
656.842	32.84466
657.034	32.64309
657.225	35.4512
657.416	36.36944
657.608	36.13671
657.799	34.20588
657.99	36.41673
658.182	32.92478
658.373	33.30311
658.564	35.70324
658.756	34.80766
658.947	33.92243
659.138	32.98141
659.33	33.6275
659.521	33.48667
659.712	34.56218
659.903	34.25625
660.094	33.69511
660.286	32.31351
660.477	37.47423
660.668	35.64477
660.859	34.18987
661.05	32.1154
661.241	35.45833
661.432	34.80912
661.623	34.11623
661.814	33.25609
662.006	31.93915
662.197	34.59158
662.388	36.31417
662.579	34.88625
662.77	39.41465
662.96	39.00515
663.151	35.95931
663.342	30.76512
663.533	35.39203
663.724	34.55477
663.915	38.125
664.106	34.1099
664.297	38.08162
664.488	35.49459
664.678	32.72185
664.869	36.01783
665.06	36.28254
665.251	34.59843
665.442	35.58234
665.632	32.39713
665.823	37.75463
666.014	29.03434
666.204	35.58017
666.395	37.28712
666.586	38.65441
666.776	35.8282
666.967	38.19284
667.158	34.56021
667.348	37.51767
667.539	32.49091
667.729	36.38322
667.92	33.47213
668.111	36.66011
668.301	36.04972
668.492	34.43267
668.682	35.08131
668.873	34.45937
669.063	32.45179
669.253	35.51278
669.444	37.90228
669.634	35.05694
669.825	38.7728
670.015	37.79337
670.206	33.19873
670.396	39.1088
670.586	34.45498
670.777	35.95599
670.967	31.43958
671.157	34.17135
671.347	33.77208
671.538	38.35406
671.728	36.13685
671.918	39.4294
672.108	36.66571
672.299	34.18522
672.489	35.82305
672.679	33.12242
672.869	36.94062
673.059	40.40047
673.249	36.31906
673.44	32.73178
673.63	34.97171
673.82	37.50729
674.01	33.0504
674.2	35.47187
674.39	41.18963
674.58	36.98426
674.77	35.38763
674.96	34.3662
675.15	43.84471
675.34	38.16763
675.53	35.40495
675.72	34.47978
675.91	31.67443
676.099	40.10462
676.289	40.58644
676.479	37.64955
676.669	34.10514
676.859	36.5663
677.049	33.93368
677.238	35.68344
677.428	39.92819
677.618	36.55658
677.808	40.0604
677.997	36.93078
678.187	33.75118
678.377	35.4237
678.567	34.54489
678.756	34.62018
678.946	35.82929
679.136	33.29066
679.325	35.28222
679.515	34.45688
679.704	33.84558
679.894	38.37037
680.084	37.64676
680.273	38.9234
680.463	35.08718
680.652	34.54681
680.842	36.74052
681.031	38.59486
681.221	34.82335
681.41	38.19254
681.6	36.50933
681.789	38.05283
681.978	39.30388
682.168	37.19816
682.357	36.64989
682.547	37.53491
682.736	36.89225
682.925	39.62814
683.115	39.0673
683.304	38.28141
683.493	36.93338
683.682	37.75434
683.872	37.27663
684.061	39.094
684.25	37.63651
684.439	42.20371
684.629	38.55826
684.818	45.03378
685.007	36.63425
685.196	36.08244
685.385	41.10647
685.574	37.60422
685.763	37.73513
685.952	37.45847
686.142	34.61308
686.331	41.03082
686.52	33.47045
686.709	42.59488
686.898	41.30537
687.087	39.21062
687.276	41.30588
687.465	40.0935
687.654	36.56622
687.842	41.50858
688.031	34.44611
688.22	41.42244
688.409	38.48992
688.598	37.99236
688.787	44.39703
688.976	38.09219
689.165	43.35468
689.353	36.98981
689.542	38.89151
689.731	40.43559
689.92	43.44017
690.108	39.66541
690.297	37.10461
690.486	38.1227
690.675	40.42653
690.863	42.55222
691.052	41.80094
691.241	39.10706
691.429	39.19954
691.618	42.0241
691.806	35.22389
691.995	37.61753
692.184	38.13491
692.372	37.44689
692.561	38.9694
692.749	38.56474
692.938	47.81528
693.126	39.9321
693.315	37.78976
693.503	40.57983
693.692	41.73694
693.88	41.17963
694.068	44.39131
694.257	39.07423
694.445	40.88465
694.634	33.53019
694.822	41.47466
695.01	43.08845
695.199	44.75128
695.387	43.02337
695.575	41.79661
695.763	38.9635
695.952	37.53597
696.14	34.94423
696.328	37.50598
696.516	39.21614
696.705	40.32358
696.893	39.62274
697.081	34.58089
697.269	41.03933
697.457	36.49618
697.645	35.75668
697.833	41.30059
698.021	37.08857
698.21	38.31544
698.398	38.89151
698.586	36.47205
698.774	35.66437
698.962	39.49113
699.15	37.18453
699.338	35.87296
699.526	41.44013
699.714	38.04042
699.901	38.05454
700.089	41.81887
700.277	37.86331
700.465	39.46365
700.653	41.7426
700.841	39.78219
701.029	37.76899
701.217	43.73765
701.404	39.95417
701.592	44.39142
701.78	46.48076
701.968	39.33741
702.155	39.45449
702.343	35.54128
702.531	43.92493
702.718	40.86866
702.906	38.14386
703.094	38.22632
703.281	43.70692
703.469	40.081
703.657	43.3296
703.844	50.36637
704.032	46.73033
704.219	38.90182
704.407	42.31762
704.595	45.44021
704.782	42.14537
704.97	40.59302
705.157	40.7098
705.345	47.61401
705.532	53.25292
705.719	44.91359
705.907	48.07904
706.094	44.61859
706.282	51.63636
706.469	44.81275
706.656	46.63227
706.844	44.68295
707.031	49.96219
707.218	48.80337
707.406	51.6404
707.593	49.36462
707.78	49.70842
707.968	47.88506
708.155	45.54252
708.342	49.66586
708.529	49.89314
708.716	49.62596
708.904	53.22074
709.091	50.40424
709.278	44.20784
709.465	54.95209
709.652	53.18945
709.839	52.10271
710.026	47.50609
710.213	41.48724
710.4	47.63173
710.587	48.1952
710.774	49.716
710.961	50.73844
711.148	47.42014
711.335	50.31522
711.522	46.49469
711.709	48.27642
711.896	54.43471
712.083	50.70969
712.27	44.81963
712.457	48.08149
712.644	42.39237
712.831	54.59861
713.017	47.67223
713.204	49.69361
713.391	45.34854
713.578	49.93916
713.765	51.63495
713.951	47.43772
714.138	56.85471
714.325	46.73811
714.512	45.30262
714.698	41.87691
714.885	50.40427
715.072	45.08858
715.258	44.16182
715.445	41.87352
715.631	48.77734
715.818	35.04765
716.005	41.16183
716.191	46.38336
716.378	42.67224
716.564	46.57442
716.751	40.38089
716.937	42.22843
717.124	47.09817
717.31	40.01927
717.497	51.40123
717.683	41.31005
717.869	51.80905
718.056	40.87365
718.242	45.08243
718.429	42.89699
718.615	39.31077
718.801	43.32669
718.988	48.04271
719.174	45.13653
719.36	41.70475
719.547	48.67061
719.733	43.847
719.919	45.10948
720.105	45.75059
720.291	43.0605
720.478	44.26827
720.664	43.60069
720.85	41.42612
721.036	55.07822
721.222	50.55494
721.408	44.34634
721.595	50.86771
721.781	50.26229
721.967	48.96081
722.153	51.29351
722.339	46.49759
722.525	45.79023
722.711	40.56162
722.897	38.59766
723.083	41.71506
723.269	48.34463
723.455	56.95518
723.641	62.78823
723.827	44.89742
724.012	45.93585
724.198	44.52435
724.384	51.82646
724.57	47.15647
724.756	38.64529
724.942	37.17464
725.127	48.95255
725.313	49.43818
725.499	49.84641
725.685	53.29893
725.87	46.59495
726.056	41.25983
726.242	50.73962
726.428	37.35638
726.613	49.03911
726.799	42.3064
726.985	40.48634
727.17	38.09644
727.356	54.03778
727.541	40.08111
727.727	44.03928
727.913	47.73602
728.098	42.42365
728.284	48.10525
728.469	40.47344
728.655	41.82566
728.84	49.70649
729.026	49.60839
729.211	47.97539
729.397	48.09852
729.582	48.71995
729.767	45.29547
729.953	46.25797
730.138	52.08309
730.323	36.98785
730.509	40.80444
730.694	53.32579
730.879	49.43463
731.065	46.50535
731.25	57.04311
731.435	49.1101
731.621	39.59758
731.806	42.90068
731.991	46.43193
732.176	39.02356
732.361	53.4867
732.547	47.23223
732.732	39.51147
732.917	56.53995
733.102	40.53975
733.287	42.10879
733.472	45.63599
733.657	44.59871
733.842	39.33459
734.027	42.31668
734.212	44.39055
734.397	42.4
734.582	46.09044
734.767	51.21311
734.952	52.0379
735.137	34.4344
735.322	52.76198
735.507	48.3315
735.692	46.03504
735.877	56.09602
736.062	54.82978
736.247	47.91177
736.431	45.57676
736.616	51.18846
736.801	48.27023
736.986	46.4198
737.171	41.47764
737.355	39.93959
737.54	53.0306
737.725	46.79136
737.909	59.67464
738.094	43.8111
738.279	50.75879
738.463	43.71701
738.648	48.74501
738.833	48.93072
739.017	57.2991
739.202	44.88078
739.386	45.26041
739.571	41.07215
739.756	50.51925
739.94	46.43603
740.125	48.69158
740.309	41.98697
740.494	51.62993
740.678	47.19035
740.863	48.84103
741.047	45.9759
741.231	55.02335
741.416	43.58503
741.6	55.60881
741.785	42.71164
741.969	52.03208
742.153	55.14703
742.338	37.33053
742.522	47.21081
742.706	51.32724
742.89	39.91662
743.075	47.50955
743.259	54.29993
743.443	53.07739
743.627	55.34276
743.812	58.9386
743.996	37.67681
744.18	44.7536
744.364	45.22347
744.548	60.86577
744.732	45.01801
744.916	53.08423
745.1	50.79093
745.285	45.81666
745.469	50.25747
745.653	56.62447
745.837	41.74552
746.021	60.5684
746.205	54.99147
746.389	48.61068
746.573	46.84623
746.757	57.075
746.94	44.84275
747.124	54.0347
747.308	41.55938
747.492	53.77289
747.676	41.92748
747.86	63.83475
748.044	44.52924
748.227	37.23555
748.411	71.03497
748.595	47.52461
748.779	43.43514
748.963	50.33673
749.146	48.42166
749.33	43.87645
749.514	41.72946
749.697	54.41311
749.881	44.6074
750.065	42.85263
750.248	49.5342
750.432	64.07885
750.616	47.77568
750.799	41.53669
750.983	63.45563
751.166	62.22341
751.35	39.52504
751.533	56.10865
751.717	58.52928
751.9	58.13894
752.084	46.63685
752.267	43.65982
752.451	44.69413
752.634	49.85527
752.818	52.99961
753.001	52.95575
753.184	55.87749
753.368	51.7979
753.551	30.22526
753.734	43.32
753.918	63.75249
754.101	44.85822
754.284	53.15913
754.467	45.5575
754.651	45.53113
754.834	43.60259
755.017	55.30408
755.2	56.72864
755.384	42.8762
755.567	53.0493
755.75	53.87563
755.933	47.4867
756.116	53.07155
756.299	45.10688
756.482	43.14234
756.665	53.24165
756.848	47.41399
757.032	50.40751
757.215	40.26318
757.398	42.02967
757.581	42.7232
757.764	68.00798
757.947	47.17201
758.129	54.93564
758.312	33.22073
758.495	47.1273
758.678	48.04134
758.861	45.39918
759.044	60.08822
759.227	43.3175
759.41	44.31485
759.592	55.16299
759.775	46.9884
759.958	55.5891
760.141	40.57298
760.324	66.55197
760.506	59.3686
760.689	55.0814
760.872	64.11482
761.054	51.58848
761.237	48.71395
761.42	49.90169
761.602	55.1681
761.785	51.51647
761.968	57.91602
762.15	61.98798
762.333	48.50677
762.515	52.45394
762.698	47.83131
762.88	55.77252
763.063	51.59656
763.245	56.62565
763.428	44.20675
763.61	46.18473
763.793	41.80673
763.975	51.87894
764.158	48.64121
764.34	46.29646
764.522	44.78959
764.705	49.5884
764.887	60.2133
765.069	40.97897
765.252	53.96609
765.434	54.5453
765.616	50.97374
765.799	45.07905
765.981	55.47534
766.163	47.12174
766.345	59.16743
766.528	46.66581
766.71	37.20873
766.892	51.34993
767.074	59.17532
767.256	48.67246
767.438	61.67941
767.62	51.14666
767.802	66.43709
767.985	54.90512
768.167	63.60321
768.349	47.79837
768.531	54.70872
768.713	52.04123
768.895	57.10886
769.077	53.09555
769.259	70.7629
769.441	88.51952
769.623	55.34465
769.804	62.1328
769.986	59.58452
770.168	66.49281
770.35	77.84213
770.532	63.5294
770.714	68.21052
770.896	67.94167
771.077	43.58605
771.259	72.25232
771.441	62.76479
771.623	76.35851
771.804	85.02401
771.986	45.74291
772.168	54.45228
772.35	71.66
772.531	85.43983
772.713	61.91434
772.894	75.30063
773.076	61.92482
773.258	58.37068
773.439	76.03199
773.621	82.80745
773.802	53.08901
773.984	54.09389
774.166	66.64358
774.347	76.9063
774.529	74.72622
774.71	42.91587
774.891	59.80414
775.073	54.91822
775.254	76.24299
775.436	56.50597
775.617	90.08246
775.799	56.61047
775.98	74.56712
776.161	82.89058
776.343	85.70453
776.524	63.17798
776.705	58.82121
776.886	43.09546
777.068	66.74683
777.249	113.1715
777.43	85.75839
777.611	50.48596
777.793	59.6246
777.974	83.88396
778.155	54.65693
778.336	51.89193
778.517	94.63962
778.698	53.43191
778.879	43.77905
779.061	35.4559
779.242	68.11818
779.423	68.35998
779.604	58.55899
779.785	58.49879
779.966	66.23571
780.147	76.14875
780.328	75.85249
780.509	96.09401
780.69	75.60272
780.871	56.30576
781.051	49.1488
781.232	65.68979
781.413	63.59438
781.594	59.92841
781.775	59.25358
781.956	54.54995
782.137	41.88826
782.317	57.08486
782.498	63.99389
782.679	64.64863
782.86	67.45765
783.04	57.5368
783.221	67.94459
783.402	84.96444
783.583	63.12139
783.763	73.89653
783.944	56.83907
784.124	46.9738
784.305	86.90509
784.486	71.70766
784.666	64.68591
784.847	46.50152
785.027	107.00645
785.208	57.58774
785.388	59.4388
785.569	56.4086
785.749	61.11829
785.93	59.3163
786.11	46.57902
786.291	70.62912
786.471	66.1906
786.652	74.63288
786.832	61.0165
787.012	65.68868
787.193	51.616
787.373	65.93052
787.553	58.37587
787.734	67.20746
787.914	58.65123
788.094	76.72749
788.275	66.46189
788.455	59.38493
788.635	49.22295
788.815	65.45791
788.995	52.84203
789.176	45.43836
789.356	54.30733
789.536	58.98261
789.716	69.87367
789.896	54.41119
790.076	56.78733
790.256	67.03519
790.436	39.89712
790.616	52.08733
790.796	65.73865
790.976	58.92036
791.156	55.70557
791.336	71.1069
791.516	67.76605
791.696	59.4212
791.876	48.1356
792.056	66.14404
792.236	73.39076
792.416	72.55285
792.596	67.61091
792.776	69.84687
792.956	71.33611
793.135	85.97795
793.315	50.83956
793.495	77.76116
793.675	71.3503
793.854	71.06906
794.034	76.7404
794.214	52.28873
794.394	72.29636
794.573	80.41783
794.753	65.24198
794.933	52.62042
795.112	67.20017
795.292	74.32505
795.472	86.01855
795.651	48.97989
795.831	62.40923
796.01	60.49285
796.19	59.45355
796.369	65.13347
796.549	69.89832
796.728	62.26055
796.908	48.8191
797.087	50.52958
797.267	59.56211
797.446	51.04629
797.626	71.02569
797.805	69.18693
797.984	55.53849
798.164	72.31969
798.343	54.56139
798.522	67.62082
798.702	65.98212
798.881	50.14632
799.06	61.13745
799.239	44.73526
799.419	53.81013
799.598	86.28617
799.777	65.98707
799.956	78.84987
800.136	58.73669
800.315	55.356
800.494	68.61459
800.673	78.86379
800.852	71.60432
801.031	77.95936
801.21	71.76915
801.389	60.01927
801.568	64.79522
801.747	88.62082
801.926	65.70833
802.105	84.86965
802.284	56.49329
802.463	86.33854
802.642	68.96552
802.821	67.45004
803	83.60549
803.179	75.4719
803.358	74.73409
803.537	56.10855
803.716	63.52651
803.895	57.90286
804.073	63.48872
804.252	53.39649
804.431	69.925
804.61	61.13073
804.789	73.75575
804.967	56.55838
805.146	60.43279
805.325	90.93056
805.503	69.68387
805.682	50.80243
805.861	109.91292
806.039	82.0277
806.218	60.41044
806.397	66.92016
806.575	63.59567
806.754	70.34737
806.932	53.86656
807.111	76.62111
807.289	77.32066
807.468	66.52777
807.646	78.46554
807.825	74.37301
808.003	67.59539
808.182	78.84198
808.36	66.47299
808.539	56.21979
808.717	84.42705
808.895	55.2889
809.074	69.96961
809.252	67.25939
809.43	73.94057
809.609	78.38774
809.787	90.40488
809.965	63.41495
810.144	67.89403
810.322	65.36548
810.5	71.02388
810.678	60.42757
810.856	96.77968
811.035	80.41965
811.213	73.59095
811.391	84.59335
811.569	71.75093
811.747	119.52265
811.925	84.08626
812.103	58.50742
812.281	69.71156
812.459	91.60028
812.637	95.03557
812.816	75.8085
812.994	98.82912
813.171	88.53142
813.349	71.59844
813.527	80.34231
813.705	86.03263
813.883	107.03952
814.061	78.44584
814.239	92.75926
814.417	98.98952
814.595	77.97166
814.773	74.4788
814.95	71.21986
815.128	74.45634
815.306	65.52676
815.484	65.47623
815.662	56.7198
815.839	53.08798
816.017	62.30091
816.195	84.2049
816.372	61.968
816.55	80.07467
816.728	91.4382
816.905	64.37217
817.083	93.21068
817.261	66.85264
817.438	114.34023
817.616	91.63965
817.793	62.3269
817.971	81.23777
818.148	79.47371
818.326	86.23663
818.503	72.68243
818.681	93.22539
818.858	64.41524
819.036	67.11022
819.213	70.39867
819.391	60.49809
819.568	60.77144
819.745	54.17857
819.923	78.38074
820.1	65.1568
820.277	58.49081
820.455	63.88916
820.632	65.9417
820.809	70.23248
820.986	54.28423
821.164	49.41237
821.341	48.53847
821.518	58.59316
821.695	50.30756
821.872	48.46021
822.05	45.67038
822.227	42.55242
822.404	44.01553
822.581	46.43376
822.758	44.6085
822.935	44.60905
823.112	46.91013
823.289	44.51752
823.466	47.31438
823.643	46.88724
823.82	50.47797
823.997	48.7904
824.174	52.08007
824.351	59.55911
824.528	57.71421
824.705	55.80904
824.882	57.60589
825.059	65.85359
825.236	56.06925
825.412	57.38796
825.589	62.61206
825.766	73.68529
825.943	59.04327
826.12	61.27695
826.296	53.76186
826.473	58.11877
826.65	57.91057
826.827	62.26939
827.003	51.23999
827.18	54.57686
827.357	57.72486
827.533	53.61299
827.71	43.59434
827.887	50.97273
828.063	54.39542
828.24	51.29111
828.416	56.6721
828.593	53.62908
828.769	63.37042
828.946	63.47862
829.122	66.12667
829.299	63.54486
829.475	52.39634
829.652	64.25498
829.828	83.98351
830.005	65.04418
830.181	78.99753
830.357	66.27097
830.534	77.01761
830.71	68.59126
830.886	76.70334
831.063	77.76038
831.239	89.13005
831.415	58.21478
831.592	88.93132
831.768	66.95608
831.944	60.50932
832.12	94.96211
832.296	87.2079
832.473	78.30777
832.649	60.7316
832.825	79.77828
833.001	56.9548
833.177	72.08042
833.353	66.55418
833.529	50.4701
833.705	65.62115
833.881	51.82624
834.058	51.8095
834.234	55.14876
834.41	54.09294
834.586	48.91686
834.761	52.59543
834.937	55.83396
835.113	56.5449
835.289	53.13135
835.465	57.0517
835.641	54.48076
835.817	57.84081
835.993	79.17868
836.169	54.69287
836.344	71.0545
836.52	74.04598
836.696	71.70036
836.872	63.08404
837.048	119.31007
837.223	65.05993
837.399	96.70243
837.575	83.6366
837.75	80.69748
837.926	102.21657
838.102	134.01661
838.277	118.19097
838.453	144.27541
838.628	147.34896
838.804	77.31982
838.98	128.489
839.155	84.69244
839.331	103.44328
839.506	78.37314
839.682	82.40701
839.857	101.61735
840.033	110.31991
840.208	68.43281
840.384	50.18284
840.559	68.09762
840.734	87.91315
840.91	105.35171
841.085	76.54747
841.26	76.85454
841.436	71.44896
841.611	74.48878
841.786	95.12292
841.962	115.69638
842.137	83.2864
842.312	65.75797
842.487	76.98977
842.663	70.84735
842.838	82.38054
843.013	183.98267
843.188	107.04442
843.363	93.67759
843.538	159.43963
843.714	155.9427
843.889	162.47214
844.064	163.15269
844.239	148.71036
844.414	165.3487
844.589	120.93574
844.764	191.1167
844.939	189.95185
845.114	209.58122
845.289	200.30084
845.464	255.86059
845.639	183.17523
845.814	109.2464
845.989	119.82243
846.163	145.45472
846.338	147.28855
846.513	198.34224
846.688	141.16088
846.863	139.53469
847.038	128.72102
847.212	143.57692
847.387	142.90816
847.562	149.6644
847.737	178.30482
847.911	94.79019
848.086	103.06879
848.261	282.67913
848.435	133.42839
848.61	185.60813
848.785	107.65381
848.959	196.53226
849.134	253.0883
849.308	253.64144
849.483	153.78385
849.658	220.91395
849.832	134.21446
850.007	123.3098
850.181	281.48877
850.356	125.72812
850.53	263.35809
850.705	110.47276
850.879	78.08535
851.053	146.92869
851.228	137.06184
851.402	163.69908
851.577	198.09135
851.751	220.40346
851.925	158.03551
852.099	91.76448
852.274	122.95483
852.448	141.31115
852.622	175.38568
852.797	156.21136
852.971	137.48302
853.145	159.84427
853.319	384.22563
853.493	210.43917
853.668	126.72628
853.842	252.82813
854.016	215.21525
854.19	241.0418
854.364	151.96609
854.538	170.47103
854.712	217.67727
854.886	144.00088
855.06	142.93597
855.234	78.85604
855.408	230.60874
855.582	196.81302
855.756	201.54092
855.93	255.59759
856.104	182.23881
856.278	202.36713
856.452	158.74624
856.626	196.47287
856.8	288.99548
856.973	191.90447
857.147	170.81481
857.321	176.69758
857.495	210.91426
857.669	148.09425
857.842	132.94697
858.016	211.42938
858.19	130.97822
858.364	321.79334
858.537	140.7896
858.711	160.55843
858.885	148.4844
859.058	133.7682
859.232	84.85441
859.405	102.45335
859.579	194.01554
859.753	175.73401
859.926	136.72889
860.1	97.45963
860.273	154.72146
860.447	240.11508
860.62	143.20891
860.794	285.83561
860.967	178.33603
861.141	219.76387
861.314	291.22247
861.487	188.46881
861.661	244.17732
861.834	240.33469
862.008	212.29756
862.181	162.21649
862.354	164.39328
862.528	177.8367
862.701	137.24188
862.874	108.32688
863.047	147.45314
863.221	141.28689
863.394	88.37915
863.567	241.0008
863.74	80.38315
863.913	198.84982
864.087	175.60701
864.26	203.90919
864.433	162.4444
864.606	254.2658
864.779	160.31731
864.952	96.08105
865.125	137.78498
865.298	156.47854
865.471	159.46706
865.644	298.4077
865.817	248.10215
865.99	207.35549
866.163	230.07699
866.336	143.99843
866.509	162.2777
866.682	144.66692
866.855	222.54744
867.028	116.63349
867.2	195.01919
867.373	93.16373
867.546	173.59808
867.719	297.05116
867.892	196.67474
868.064	117.62662
868.237	186.80113
868.41	165.71097
868.583	114.41444
868.755	121.47423
868.928	164.11758
869.101	296.88131
869.273	223.00284
869.446	196.45259
869.619	223.73521
869.791	155.78703
869.964	219.05165
870.136	213.97905
870.309	176.4414
870.481	168.3049
870.654	96.10937
870.826	172.79605
870.999	143.95898
871.171	213.15733
871.344	136.19669
871.516	153.04486
871.689	129.85169
871.861	172.21404
872.033	130.51366
872.206	151.84317
872.378	218.71276
872.55	149.33272
872.723	109.58198
872.895	154.58429
873.067	219.7666
873.24	246.5795
873.412	141.74547
873.584	152.26464
873.756	141.99821
873.928	190.24053
874.101	186.94945
874.273	200.28414
874.445	85.72496
874.617	104.9716
874.789	178.93138
874.961	144.72413
875.133	191.52741
875.305	166.75092
875.477	121.0187
875.649	103.06194
875.821	126.6585
875.993	255.86957
876.165	115.53486
876.337	187.01364
876.509	150.95452
876.681	181.29958
876.853	177.86368
877.025	180.52773
877.197	129.05539
877.369	125.53922
877.541	212.68314
877.712	85.58988
877.884	117.63713
878.056	198.81968
878.228	116.87462
878.4	188.58616
878.571	115.2152
878.743	91.84478
878.915	170.48405
879.086	117.99655
879.258	136.51251
879.43	125.87535
879.601	112.6112
879.773	117.69222
879.945	49.66787
880.116	66.67125
880.288	51.39625
880.459	53.76314
880.631	48.78894
880.802	52.98747
880.974	50.97326
881.145	44.39852
881.317	50.95508
881.488	46.24436
881.66	48.31796
881.831	46.91314
882.002	54.38241
882.174	48.50939
882.345	53.83203
882.517	44.60822
882.688	58.23302
882.859	55.27362
883.03	69.33113
883.202	67.93213
883.373	65.36004
883.544	63.93972
883.715	89.14433
883.887	78.52981
884.058	75.15111
884.229	90.73646
884.4	92.1325
884.571	99.33263
884.742	91.02051
884.914	96.15271
885.085	124.39449
885.256	141.10288
885.427	123.86109
885.598	139.69937
885.769	145.16623
885.94	137.19012
886.111	110.02476
886.282	162.59541
886.453	135.24805
886.624	108.19963
886.795	151.97507
886.966	135.69643
887.136	164.666
887.307	144.82467
887.478	190.90109
887.649	173.95431
887.82	179.85339
887.991	153.26765
888.161	198.08231
888.332	192.45036
888.503	114.61882
888.674	241.69374
888.844	252.8245
889.015	209.71052
889.186	113.18109
889.356	244.50594
889.527	112.90279
889.698	379.25666
889.868	150.9474
890.039	185.17743
890.209	156.62235
890.38	207.4666
890.551	178.3128
890.721	248.32559
890.892	209.29675
891.062	158.4226
891.233	187.74194
891.403	144.59431
891.574	121.55412
891.744	153.42267
891.914	202.35505
892.085	170.72905
892.255	80.67084
892.425	241.71861
892.596	209.28899
892.766	187.17553
892.936	248.88177
893.107	211.40352
893.277	136.04556
893.447	104.38106
893.618	85.07594
893.788	142.34101
893.958	94.3438
894.128	95.31862
894.298	101.15077
894.468	127.63969
894.639	71.7711
894.809	62.00285
894.979	77.81315
895.149	85.27639
895.319	77.88564
895.489	98.87549
895.659	111.61709
895.829	87.33536
895.999	91.05512
896.169	74.64197
896.339	86.98568
896.509	146.55415
896.679	164.32721
896.849	161.92281
897.019	211.01168
897.189	175.60051
897.358	157.96392
897.528	217.76775
897.698	99.25708
897.868	201.4808
898.038	310.87906
898.208	291.76036
898.377	125.99599
898.547	311.59658
898.717	454.53505
898.886	207.54515
899.056	297.71863
899.226	427.84529
899.395	277.38586
899.565	337.97589
899.735	227.63798
899.904	378.94709
900.074	320.85014
900.244	172.26298
900.413	549.02817
900.583	161.8176
900.752	229.91606
900.922	332.95633
901.091	69.35435
901.261	308.91675
901.43	285.25834
901.599	294.38417
901.769	578.73064
901.938	322.54531
902.108	321.0803
902.277	397.52051
902.446	138.47661
902.616	142.80382
902.785	208.44911
902.954	316.47776
903.124	221.39653
903.293	191.05429
903.462	120.35565
903.631	143.51302
903.801	111.47369
903.97	71.73053
904.139	107.19915
904.308	86.07358
904.477	78.38413
904.646	56.17232
904.816	74.67479
904.985	93.60775
905.154	128.66568
