Data from WindowProjectSample2_Transmission__0__00005.txt Node

Date: Sat May 03 22:18:19 EDT 2025
User: jessi
Spectrometer: SR400872
Trigger mode: 0
Integration Time (sec): 5.000010E-1
Scans to average: 10
Electric dark correction enabled: true
Nonlinearity correction enabled: true
Boxcar width: 0
XAxis mode: Wavelengths
Number of Pixels in Spectrum: 3648
>>>>>Begin Spectral Data<<<<<
184.909	-6227.27457
185.132	7802.26688
185.355	18420.78022
185.578	8479.50873
185.801	-1229.42411
186.024	-2114.2858
186.247	-3979.43181
186.47	-2261.00046
186.693	-97.65648
186.916	-130.5619
187.139	-4416.4156
187.362	-14027.06309
187.585	1844.02759
187.808	-3284.43942
188.031	199.64408
188.254	3119.83363
188.476	-3935.74849
188.699	-38938.62238
188.922	3473.86822
189.145	-7526.8656
189.368	1179.39346
189.591	1284.25562
189.813	1338.3625
190.036	-3839.47636
190.259	2060.1962
190.482	9616.14545
190.705	3333.34239
190.927	11846.14679
191.15	5601.44908
191.373	1765.2913
191.595	5018.9742
191.818	3013.39898
192.041	590.66638
192.263	2745.6793
192.486	-1669.09751
192.709	-11408.86251
192.931	5669.50406
193.154	-15598.57584
193.377	5963.08648
193.599	11895.52645
193.822	-1476.38472
194.044	974.5294
194.267	1195.79595
194.489	50.87612
194.712	-6334.41354
194.934	4774.86663
195.157	-3222.78198
195.379	934.56435
195.602	1796.9622
195.824	10160.28064
196.047	4321.74417
196.269	-10550.42617
196.492	-11858.82184
196.714	-4384.29575
196.936	-4391.8771
197.159	6218.55196
197.381	-685.80031
197.604	2672.04816
197.826	-14602.93145
198.048	3659.89606
198.271	2200.41317
198.493	1668.94983
198.715	2494.88956
198.938	-3527.95338
199.16	2322.53371
199.382	3237.23208
199.604	3953.11233
199.827	-1301.75134
200.049	-2109.33817
200.271	3528.41879
200.493	-3141.46552
200.715	8268.55431
200.938	3239.05622
201.16	-6690.33182
201.382	-169452.32212
201.604	-8061.88457
201.826	2342.7364
202.048	22892.65245
202.27	18064.07144
202.492	4755.86622
202.715	-6411.19197
202.937	-6011.88
203.159	-45178.71084
203.381	2132.31536
203.603	4002.0819
203.825	-1777.66034
204.047	4312.53949
204.269	12411.97288
204.491	1669.49252
204.713	9574.21676
204.935	6765.14615
205.156	-9568.79968
205.378	960.92772
205.6	3104.55432
205.822	5027.65192
206.044	1796.22064
206.266	4827.78013
206.488	2676.82336
206.71	15675.18393
206.932	-11510.89331
207.153	-4545.63999
207.375	5828.22311
207.597	9095.59116
207.819	2862.36117
208.041	26490.94196
208.262	-1635.50466
208.484	-5089.28216
208.706	1196.23405
208.927	4402.6078
209.149	2339.29437
209.371	4439.09144
209.593	424.20096
209.814	3575.47785
210.036	2657.69505
210.258	1491.67776
210.479	777.72429
210.701	1481.46712
210.922	-9580.18049
211.144	3647.7279
211.366	1769.30586
211.587	1639.98915
211.809	9253.22873
212.03	3496.991
212.252	3524.55876
212.473	6078.4731
212.695	1783.33842
212.916	3932.47242
213.138	1413.15064
213.359	-4707.69518
213.581	1710.13238
213.802	1135.90642
214.024	-12104.58375
214.245	-4153.69326
214.466	1131.82078
214.688	2817.94439
214.909	3368.56087
215.131	-12543.97465
215.352	2400.28875
215.573	14349.67268
215.795	1935.91857
216.016	3470.26653
216.237	-1342.06597
216.459	2611.86924
216.68	-15200.28149
216.901	3234.55515
217.122	-9796.62467
217.344	-2014.62564
217.565	-56753.79881
217.786	-101929.27776
218.007	567.02693
218.228	787.97552
218.45	17188.02687
218.671	577.41912
218.892	1816.05119
219.113	1220.00373
219.334	-1347.24813
219.555	3698.24593
219.776	6192.64738
219.997	4919.86513
220.219	5181.13185
220.44	1240.37262
220.661	-10829.54663
220.882	6034.77947
221.103	-11964.47673
221.324	1375.67629
221.545	3074.2212
221.766	2395.74048
221.987	1978.5061
222.208	749.21595
222.429	1655.41405
222.65	291.15469
222.87	761.50844
223.091	2721.587
223.312	2172.55812
223.533	1094.49961
223.754	7192.41266
223.975	6533.24251
224.196	989.67987
224.417	-24202.93316
224.637	712.84609
224.858	129.76488
225.079	10310.03239
225.3	1895.52952
225.521	2907.08599
225.741	690.75382
225.962	650.05207
226.183	334.85976
226.404	1126.9178
226.624	1332.35317
226.845	618.0462
227.066	656.27069
227.286	330.9183
227.507	181.39448
227.728	176.85356
227.948	276.77719
228.169	90.90461
228.389	94.88689
228.61	52.34602
228.831	74.03251
229.051	8.10537
229.272	41.3822
229.492	60.24901
229.713	20.47253
229.933	44.48805
230.154	38.89665
230.374	63.13427
230.595	46.19116
230.815	27.41284
231.036	49.52004
231.256	-6.14319
231.477	76.3539
231.697	46.50013
231.917	56.56214
232.138	72.19696
232.358	147.7107
232.579	132.85342
232.799	22.41428
233.019	115.95887
233.24	145.65676
233.46	51.2927
233.68	78.47867
233.901	52.33613
234.121	37.16872
234.341	11.04664
234.561	-0.6887
234.782	27.42121
235.002	84.72733
235.222	1.93282
235.442	75.24674
235.662	39.35654
235.883	74.8261
236.103	65.76286
236.323	47.53128
236.543	39.26719
236.763	54.8954
236.983	57.78412
237.203	59.35681
237.423	82.33866
237.643	110.66992
237.864	95.32893
238.084	25.41779
238.304	38.34705
238.524	68.07157
238.744	53.44985
238.964	87.04355
239.184	76.30795
239.404	80.42465
239.624	42.26223
239.843	70.92041
240.063	45.77284
240.283	31.45979
240.503	33.22703
240.723	29.30528
240.943	17.52404
241.163	22.90681
241.383	12.95691
241.603	10.01719
241.822	10.26528
242.042	8.29891
242.262	10.76747
242.482	11.46637
242.702	12.85993
242.921	4.09906
243.141	9.13385
243.361	7.78999
243.581	12.21613
243.8	9.97848
244.02	6.52435
244.24	12.33663
244.459	12.41124
244.679	23.33253
244.899	15.72803
245.118	17.74709
245.338	15.33051
245.558	18.31891
245.777	10.11266
245.997	11.60759
246.216	12.78275
246.436	7.37357
246.655	5.65119
246.875	3.87194
247.094	7.61598
247.314	3.0355
247.533	4.51678
247.753	5.25492
247.972	4.58412
248.192	1.69936
248.411	2.69249
248.631	4.87651
248.85	6.25239
249.07	4.88813
249.289	8.10055
249.508	6.15586
249.728	9.65458
249.947	10.13542
250.166	11.68805
250.386	5.55536
250.605	9.49861
250.824	15.16187
251.044	10.30376
251.263	29.19658
251.482	17.1094
251.701	14.50397
251.921	0.38323
252.14	5.41151
252.359	5.31272
252.578	12.25713
252.798	4.38843
253.017	11.13693
253.236	5.63655
253.455	8.04355
253.674	14.7278
253.893	7.27169
254.112	10.5937
254.331	14.44095
254.551	13.21972
254.77	5.64247
254.989	18.42959
255.208	13.67457
255.427	19.2634
255.646	15.98881
255.865	27.36394
256.084	10.10956
256.303	14.7137
256.522	17.34764
256.741	5.37963
256.96	4.47651
257.179	10.18681
257.397	14.45379
257.616	7.47472
257.835	7.98803
258.054	18.62843
258.273	11.97987
258.492	13.48666
258.711	8.07201
258.93	3.26092
259.148	5.40147
259.367	5.56983
259.586	6.51133
259.805	2.7549
260.023	6.02393
260.242	4.47133
260.461	3.4918
260.68	1.95919
260.898	5.39998
261.117	2.01995
261.336	1.41765
261.554	4.40384
261.773	4.58838
261.992	1.02079
262.21	4.68154
262.429	5.488
262.648	8.83319
262.866	10.28044
263.085	7.17881
263.303	7.26638
263.522	11.07779
263.74	11.58906
263.959	18.81267
264.178	9.25606
264.396	8.86899
264.615	6.5236
264.833	14.48698
265.051	12.51159
265.27	12.77057
265.488	13.70448
265.707	8.37403
265.925	13.86247
266.144	6.99542
266.362	7.69541
266.58	7.1842
266.799	6.50837
267.017	7.2025
267.235	6.43169
267.454	4.31229
267.672	2.36772
267.89	5.59202
268.109	5.67713
268.327	5.80361
268.545	1.46548
268.763	5.19524
268.982	2.0163
269.2	6.34852
269.418	3.72981
269.636	2.5769
269.854	5.9485
270.073	4.40842
270.291	2.32375
270.509	2.59186
270.727	5.47438
270.945	8.77319
271.163	9.0162
271.381	2.1903
271.599	4.02596
271.817	6.61756
272.036	2.56271
272.254	3.98764
272.472	3.13981
272.69	3.23153
272.908	3.25317
273.126	5.266
273.344	6.76438
273.562	2.45406
273.779	3.31876
273.997	5.17936
274.215	5.50367
274.433	3.74602
274.651	5.82761
274.869	6.07556
275.087	3.69521
275.305	5.54225
275.523	3.4951
275.74	3.74252
275.958	6.60241
276.176	10.1719
276.394	3.38569
276.612	4.28422
276.829	3.94223
277.047	3.67001
277.265	3.81403
277.483	4.488
277.7	5.64267
277.918	4.6143
278.136	7.84064
278.353	3.97306
278.571	2.4905
278.789	5.89571
279.006	1.46762
279.224	3.89037
279.442	6.38182
279.659	4.54908
279.877	3.15165
280.094	6.63788
280.312	1.49038
280.529	4.39979
280.747	1.04737
280.964	3.44729
281.182	7.49702
281.399	3.54362
281.617	4.59571
281.834	3.48491
282.052	3.01333
282.269	4.00547
282.487	3.23236
282.704	2.92786
282.921	2.86663
283.139	4.50529
283.356	5.36485
283.574	4.89015
283.791	2.41626
284.008	6.72172
284.226	3.72765
284.443	4.12301
284.66	5.37232
284.877	4.3237
285.095	2.919
285.312	2.03905
285.529	1.42145
285.746	1.24339
285.964	2.68097
286.181	1.60214
286.398	2.5005
286.615	3.44952
286.832	3.14166
287.05	1.12683
287.267	2.45588
287.484	2.42585
287.701	3.57929
287.918	3.31163
288.135	3.84418
288.352	1.52677
288.569	1.9317
288.786	3.35136
289.003	2.49136
289.22	3.55853
289.437	2.19785
289.654	3.45925
289.871	3.87098
290.088	3.74231
290.305	2.7352
290.522	2.39531
290.739	2.5872
290.956	3.88816
291.173	4.73194
291.39	4.23018
291.607	3.15767
291.824	2.50307
292.04	1.53367
292.257	3.72183
292.474	4.30523
292.691	2.68662
292.908	1.40652
293.125	2.60416
293.341	1.46587
293.558	6.27843
293.775	2.58896
293.992	2.76969
294.208	1.19749
294.425	1.73285
294.642	2.42137
294.858	3.40283
295.075	1.03326
295.292	2.54907
295.508	3.15094
295.725	4.6947
295.942	2.26077
296.158	1.59663
296.375	2.5962
296.591	2.03048
296.808	2.14416
297.024	2.40424
297.241	2.63104
297.458	2.83084
297.674	0.35248
297.891	2.41788
298.107	1.80803
298.323	1.39912
298.54	3.45478
298.756	1.75136
298.973	0.96158
299.189	3.60979
299.406	1.50886
299.622	3.72228
299.838	3.5369
300.055	3.14324
300.271	0.70996
300.487	1.35662
300.704	1.43514
300.92	1.00382
301.136	4.80985
301.353	3.73548
301.569	2.63321
301.785	2.88537
302.001	3.40661
302.218	2.91253
302.434	3.03163
302.65	0.99602
302.866	2.10132
303.083	4.80912
303.299	4.65055
303.515	2.33384
303.731	2.69488
303.947	0.85528
304.163	1.70174
304.379	2.53818
304.595	3.07627
304.812	1.79247
305.028	1.39063
305.244	2.13363
305.46	3.31666
305.676	3.38959
305.892	4.15227
306.108	2.7871
306.324	2.28183
306.54	4.55081
306.756	3.33052
306.972	3.19268
307.187	2.08096
307.403	4.34753
307.619	2.0375
307.835	3.64174
308.051	4.17504
308.267	1.20622
308.483	3.55921
308.699	2.89088
308.914	2.59294
309.13	2.43171
309.346	0.68815
309.562	1.35975
309.778	0.89673
309.993	3.0425
310.209	2.18023
310.425	1.23429
310.641	2.08152
310.856	1.15348
311.072	1.27112
311.288	2.28739
311.503	2.43518
311.719	0.62282
311.935	0.37904
312.15	2.49025
312.366	2.316
312.581	2.95168
312.797	2.34535
313.013	3.01165
313.228	1.74801
313.444	2.56714
313.659	1.78591
313.875	2.71588
314.09	2.28738
314.306	3.95105
314.521	3.33806
314.737	3.01849
314.952	2.53733
315.168	2.17872
315.383	2.85416
315.599	2.28759
315.814	2.31783
316.029	3.41023
316.245	1.00115
316.46	0.65663
316.675	3.95827
316.891	4.80921
317.106	5.74216
317.321	3.2326
317.537	3.16482
317.752	3.18506
317.967	3.41094
318.183	1.53558
318.398	2.18179
318.613	3.48448
318.828	4.0711
319.043	3.41465
319.259	2.23534
319.474	2.94293
319.689	3.73367
319.904	0.81849
320.119	3.30845
320.334	2.65808
320.549	2.24347
320.765	3.82919
320.98	2.97388
321.195	3.44658
321.41	2.36186
321.625	3.34318
321.84	4.53391
322.055	4.72049
322.27	2.00344
322.485	1.32449
322.7	3.02204
322.915	3.59878
323.13	1.54319
323.345	4.16607
323.56	3.22146
323.775	3.04101
323.989	3.14072
324.204	2.63112
324.419	3.5817
324.634	1.01318
324.849	2.33331
325.064	4.81621
325.279	3.49541
325.493	3.13115
325.708	3.90484
325.923	1.8132
326.138	1.62414
326.352	4.26451
326.567	3.51777
326.782	2.05467
326.997	1.77069
327.211	3.38619
327.426	3.09466
327.641	2.16896
327.855	0.8789
328.07	3.11422
328.285	4.48217
328.499	2.24792
328.714	2.85121
328.928	3.60455
329.143	2.58838
329.358	3.73066
329.572	3.68317
329.787	3.9351
330.001	5.17988
330.216	1.08102
330.43	4.53658
330.645	4.45898
330.859	3.52277
331.074	1.78919
331.288	2.77343
331.503	4.17038
331.717	1.61423
331.931	2.58261
332.146	2.88242
332.36	4.62433
332.575	3.18755
332.789	2.94448
333.003	2.37356
333.218	3.28948
333.432	1.78494
333.646	3.31857
333.86	4.07792
334.075	4.44275
334.289	1.91449
334.503	1.72719
334.717	3.20825
334.932	3.17672
335.146	4.37679
335.36	2.34983
335.574	3.38336
335.788	3.49833
336.003	4.02673
336.217	3.53979
336.431	3.23812
336.645	2.11352
336.859	1.29576
337.073	2.40212
337.287	2.50777
337.501	1.49321
337.715	2.52123
337.929	3.19868
338.143	1.25538
338.357	2.42017
338.571	1.57264
338.785	2.99136
338.999	2.05123
339.213	2.04833
339.427	1.06282
339.641	3.79707
339.855	2.41402
340.069	2.08154
340.283	3.73602
340.497	4.23365
340.711	3.0752
340.924	2.33599
341.138	1.51727
341.352	1.12965
341.566	2.66737
341.78	0.69061
341.993	1.97508
342.207	1.55908
342.421	2.78403
342.635	2.74696
342.848	1.82019
343.062	0.72065
343.276	1.75603
343.49	4.73894
343.703	1.85073
343.917	3.37551
344.131	3.32335
344.344	1.70727
344.558	1.91414
344.771	1.48914
344.985	3.77262
345.199	4.1144
345.412	2.78671
345.626	2.61211
345.839	0.72556
346.053	1.40826
346.266	1.26452
346.48	3.1392
346.693	2.83285
346.907	2.9251
347.12	1.71659
347.334	2.77712
347.547	2.80784
347.76	2.12579
347.974	3.79875
348.187	2.7448
348.401	2.34634
348.614	1.91137
348.827	2.37715
349.041	3.29255
349.254	0.69879
349.467	2.29328
349.681	1.2105
349.894	1.83768
350.107	3.5161
350.32	4.04989
350.534	0.89809
350.747	1.97101
350.96	1.57121
351.173	1.75185
351.386	1.99184
351.6	1.95975
351.813	1.63352
352.026	2.27036
352.239	1.04618
352.452	2.24556
352.665	3.28138
352.878	2.17801
353.092	4.4846
353.305	2.87702
353.518	2.42724
353.731	1.4294
353.944	3.27656
354.157	1.63355
354.37	1.44561
354.583	1.2939
354.796	0.7319
355.009	3.42064
355.222	2.39479
355.435	2.35635
355.647	3.41069
355.86	1.31754
356.073	2.27574
356.286	1.67524
356.499	2.85399
356.712	2.55691
356.925	2.52152
357.138	3.10584
357.35	1.24473
357.563	1.78263
357.776	2.25184
357.989	1.85426
358.201	2.62074
358.414	2.27228
358.627	3.30325
358.84	1.82966
359.052	1.18294
359.265	1.22256
359.478	3.02608
359.69	-0.3854
359.903	2.90406
360.116	2.78659
360.328	0.61772
360.541	2.82994
360.753	1.27255
360.966	1.52865
361.179	1.65378
361.391	1.46286
361.604	1.02572
361.816	1.49745
362.029	1.33739
362.241	1.12609
362.454	1.38045
362.666	1.13092
362.879	1.97308
363.091	1.69771
363.304	1.16676
363.516	1.86405
363.728	0.85745
363.941	2.35295
364.153	1.56588
364.366	0.02935
364.578	0.90169
364.79	2.28496
365.003	1.86789
365.215	1.38073
365.427	2.30609
365.639	3.00738
365.852	2.17231
366.064	3.65248
366.276	1.58659
366.488	2.39445
366.701	1.45249
366.913	1.88399
367.125	1.51423
367.337	1.80126
367.549	1.52778
367.762	1.89861
367.974	1.95302
368.186	1.35352
368.398	2.92722
368.61	2.47011
368.822	2.7215
369.034	2.05042
369.246	2.55981
369.458	4.15465
369.67	1.14057
369.882	3.62371
370.094	0.2043
370.306	3.43803
370.518	1.61757
370.73	1.35647
370.942	1.26922
371.154	1.72294
371.366	1.50001
371.578	2.16045
371.79	1.1374
372.002	3.01446
372.214	3.52722
372.425	2.08784
372.637	3.12424
372.849	2.27769
373.061	0.18357
373.273	2.40063
373.484	2.35222
373.696	2.65174
373.908	0.21299
374.12	2.82607
374.331	2.45014
374.543	1.18194
374.755	1.15183
374.967	2.1796
375.178	2.53813
375.39	1.79521
375.602	1.90575
375.813	0.90629
376.025	1.0077
376.236	1.95167
376.448	1.96461
376.66	1.54607
376.871	1.46337
377.083	2.76615
377.294	2.84476
377.506	1.44922
377.717	2.86283
377.929	2.04231
378.14	1.21147
378.352	2.2948
378.563	2.27458
378.775	2.90712
378.986	1.2462
379.197	2.21609
379.409	1.39115
379.62	2.6707
379.832	2.1107
380.043	1.77157
380.254	2.06598
380.466	1.02523
380.677	4.25937
380.888	3.84909
381.1	4.02586
381.311	3.8844
381.522	2.02904
381.733	4.60682
381.945	1.67664
382.156	1.91897
382.367	1.66411
382.578	4.50584
382.789	4.25727
383.001	1.50798
383.212	3.16513
383.423	3.23006
383.634	3.00493
383.845	2.33843
384.056	1.66405
384.267	1.90626
384.478	1.76216
384.69	1.13404
384.901	2.40641
385.112	2.25746
385.323	3.40777
385.534	2.24118
385.745	2.13819
385.956	2.42653
386.167	1.18287
386.378	2.44256
386.588	1.08562
386.799	1.31301
387.01	0.64296
387.221	2.77744
387.432	1.80187
387.643	3.59316
387.854	1.64272
388.065	1.71577
388.275	1.84435
388.486	1.61569
388.697	1.89019
388.908	1.60286
389.119	2.89463
389.329	3.53118
389.54	2.10216
389.751	2.22557
389.962	2.98612
390.172	2.10438
390.383	1.53013
390.594	1.42002
390.804	1.21631
391.015	1.41537
391.226	1.94777
391.436	2.23656
391.647	2.12275
391.858	2.49597
392.068	0.53863
392.279	1.0413
392.489	2.03943
392.7	2.74458
392.91	1.17937
393.121	1.40566
393.331	2.31163
393.542	2.98093
393.752	2.40542
393.963	2.12373
394.173	2.00271
394.384	2.5595
394.594	1.9453
394.804	1.0346
395.015	1.98929
395.225	2.44295
395.436	1.02249
395.646	2.4987
395.856	1.38646
396.067	0.8619
396.277	2.80382
396.487	2.30774
396.697	2.13672
396.908	2.81217
397.118	2.50875
397.328	2.16513
397.538	2.75279
397.749	1.33487
397.959	2.71005
398.169	2.49738
398.379	0.79849
398.589	2.62859
398.8	2.08477
399.01	1.94189
399.22	1.70474
399.43	3.90961
399.64	1.69358
399.85	2.54552
400.06	1.98716
400.27	1.45108
400.48	2.02015
400.69	3.25384
400.9	1.5649
401.11	1.48436
401.32	2.75019
401.53	1.63197
401.74	3.36766
401.95	2.63594
402.16	1.33317
402.37	2.52312
402.58	1.55423
402.79	2.48939
403	3.00202
403.209	1.48607
403.419	2.63207
403.629	1.63086
403.839	2.6261
404.049	2.70351
404.258	1.45657
404.468	1.44529
404.678	2.562
404.888	2.57358
405.097	1.38652
405.307	1.90521
405.517	2.45499
405.727	2.2121
405.936	1.68861
406.146	2.28112
406.356	3.15577
406.565	1.93173
406.775	1.60071
406.984	1.6052
407.194	3.62361
407.404	2.1529
407.613	2.39025
407.823	2.67494
408.032	3.19701
408.242	2.91203
408.451	1.67938
408.661	2.07855
408.87	3.53318
409.08	1.61663
409.289	2.4288
409.499	2.26858
409.708	2.1892
409.918	0.41864
410.127	2.14456
410.336	3.27712
410.546	2.59512
410.755	1.71671
410.964	1.64801
411.174	1.3701
411.383	2.51281
411.592	2.48534
411.802	1.42332
412.011	2.74152
412.22	2.02745
412.429	3.33969
412.639	3.28601
412.848	3.01988
413.057	3.48438
413.266	3.20765
413.475	2.07838
413.685	2.88907
413.894	2.88078
414.103	3.05761
414.312	2.81582
414.521	2.0379
414.73	2.20451
414.939	3.78678
415.148	2.62663
415.357	2.39976
415.566	1.91281
415.776	1.82088
415.985	1.75083
416.194	2.72796
416.403	3.41882
416.611	1.12887
416.82	1.60916
417.029	2.13234
417.238	1.58517
417.447	1.30336
417.656	1.66171
417.865	1.41943
418.074	1.75635
418.283	1.80451
418.492	2.47875
418.7	2.3221
418.909	3.08214
419.118	2.08815
419.327	2.39427
419.536	2.10622
419.744	1.68089
419.953	2.9736
420.162	2.8833
420.371	1.76042
420.579	1.67123
420.788	2.85291
420.997	2.74331
421.205	2.74247
421.414	2.50243
421.623	2.40596
421.831	1.98217
422.04	2.79898
422.249	1.86077
422.457	2.49184
422.666	1.8949
422.874	3.0706
423.083	2.9905
423.291	2.84007
423.5	2.48159
423.708	2.70455
423.917	3.1893
424.125	2.54365
424.334	2.14552
424.542	4.14801
424.751	3.33716
424.959	3.06283
425.167	3.50244
425.376	3.34566
425.584	2.56024
425.793	2.85801
426.001	1.93104
426.209	2.77384
426.418	1.86015
426.626	1.93561
426.834	1.71154
427.042	2.23616
427.251	1.86197
427.459	2.77781
427.667	2.43238
427.875	1.5146
428.084	1.82046
428.292	3.16049
428.5	2.74681
428.708	1.7004
428.916	1.63893
429.124	2.38456
429.333	2.11881
429.541	2.13208
429.749	2.31962
429.957	2.17513
430.165	3.92601
430.373	1.53983
430.581	2.34428
430.789	3.22961
430.997	1.94382
431.205	1.8035
431.413	2.35778
431.621	2.05413
431.829	2.756
432.037	1.98047
432.245	2.33873
432.453	2.52147
432.661	2.0188
432.869	3.50662
433.076	1.64436
433.284	2.1534
433.492	2.62171
433.7	2.99424
433.908	1.9293
434.116	2.236
434.323	2.40071
434.531	2.34837
434.739	2.58609
434.947	2.88613
435.154	2.88866
435.362	2.48903
435.57	2.2018
435.778	2.02606
435.985	2.66352
436.193	2.10937
436.401	3.17932
436.608	2.48293
436.816	2.09593
437.023	3.54557
437.231	3.43857
437.439	2.48317
437.646	2.85761
437.854	2.69602
438.061	2.88747
438.269	2.1632
438.476	2.74612
438.684	2.48187
438.891	2.195
439.099	1.87862
439.306	1.47159
439.514	1.78953
439.721	2.72589
439.929	2.14894
440.136	2.89492
440.343	2.83893
440.551	2.437
440.758	4.08857
440.965	2.9954
441.173	2.70394
441.38	2.16887
441.587	2.67475
441.795	2.16971
442.002	2.64134
442.209	2.60368
442.416	2.87682
442.624	2.80541
442.831	2.83287
443.038	2.15233
443.245	1.8704
443.452	2.2387
443.66	2.95716
443.867	1.974
444.074	2.20021
444.281	1.92187
444.488	2.2373
444.695	2.3211
444.902	2.11795
445.109	2.97183
445.316	2.43821
445.523	2.31667
445.73	2.15838
445.937	2.93868
446.144	3.27268
446.351	3.21935
446.558	2.40365
446.765	3.53225
446.972	3.70829
447.179	2.81367
447.386	3.93056
447.593	2.49588
447.8	3.68814
448.007	2.49379
448.214	2.60465
448.42	2.17436
448.627	3.25717
448.834	2.32184
449.041	2.36575
449.248	2.35232
449.454	3.15282
449.661	3.59002
449.868	2.31792
450.075	2.22663
450.281	1.40242
450.488	1.95975
450.695	2.04778
450.901	2.06677
451.108	2.43428
451.315	3.24496
451.521	2.52771
451.728	3.17149
451.935	2.23394
452.141	2.43841
452.348	2.54082
452.554	2.59359
452.761	2.37846
452.967	3.58316
453.174	2.69545
453.38	2.82465
453.587	1.81942
453.793	2.61683
454	3.1812
454.206	3.95816
454.413	3.38361
454.619	2.99165
454.825	2.20611
455.032	2.94688
455.238	3.44338
455.445	1.94474
455.651	2.91091
455.857	1.47525
456.064	2.49426
456.27	2.59799
456.476	2.47938
456.682	1.8187
456.889	2.92947
457.095	3.06763
457.301	4.26017
457.507	2.67276
457.714	2.72462
457.92	2.57401
458.126	1.99363
458.332	2.39967
458.538	2.21587
458.744	2.21178
458.951	2.32717
459.157	3.8783
459.363	2.91784
459.569	2.80685
459.775	3.56232
459.981	2.47482
460.187	3.04375
460.393	3.42029
460.599	3.92835
460.805	3.02366
461.011	2.91393
461.217	3.31356
461.423	3.49122
461.629	2.63225
461.835	3.31943
462.041	2.61256
462.247	3.92673
462.453	2.70488
462.658	2.83432
462.864	3.34114
463.07	3.16017
463.276	2.97165
463.482	3.01631
463.688	3.87589
463.893	2.54727
464.099	2.62004
464.305	4.0688
464.511	2.62302
464.716	2.8616
464.922	3.31679
465.128	2.40622
465.333	4.15944
465.539	3.4059
465.745	2.71623
465.95	3.12689
466.156	4.72242
466.362	3.79969
466.567	2.8339
466.773	2.73251
466.978	4.17542
467.184	2.32709
467.389	1.61631
467.595	3.28059
467.8	2.43993
468.006	3.80353
468.211	3.81607
468.417	2.29816
468.622	3.30127
468.828	3.53904
469.033	3.09522
469.239	4.93205
469.444	2.77179
469.649	3.66587
469.855	2.83325
470.06	3.14566
470.266	2.26423
470.471	3.6134
470.676	3.45414
470.881	2.03674
471.087	3.9266
471.292	4.51724
471.497	2.23575
471.703	2.94147
471.908	2.69067
472.113	3.33678
472.318	3.724
472.523	2.29493
472.729	3.20063
472.934	3.41536
473.139	2.89083
473.344	3.48467
473.549	4.0701
473.754	2.72285
473.959	4.56472
474.164	2.62029
474.369	2.95849
474.575	3.75247
474.78	3.21921
474.985	2.74899
475.19	1.9986
475.395	2.56872
475.6	2.967
475.804	3.94941
476.009	3.01891
476.214	3.21847
476.419	2.82468
476.624	1.94026
476.829	2.50015
477.034	3.47596
477.239	2.52159
477.444	3.47882
477.648	3.24379
477.853	3.49154
478.058	2.82505
478.263	2.63418
478.468	2.30376
478.672	2.38524
478.877	3.84654
479.082	4.1728
479.287	3.22934
479.491	3.10622
479.696	2.21885
479.901	3.73045
480.105	3.442
480.31	2.62615
480.515	2.91499
480.719	4.53967
480.924	2.63172
481.128	2.15412
481.333	2.8514
481.538	3.06705
481.742	2.78382
481.947	3.48301
482.151	3.80767
482.356	3.79111
482.56	4.73462
482.765	4.91517
482.969	6.34257
483.174	7.11944
483.378	8.62643
483.582	8.24279
483.787	9.14842
483.991	9.08137
484.196	8.99953
484.4	8.85928
484.604	9.32233
484.809	7.81702
485.013	7.76414
485.217	6.73632
485.422	5.94807
485.626	5.3804
485.83	5.1614
486.034	4.94233
486.239	5.08603
486.443	5.29899
486.647	5.23254
486.851	6.19773
487.055	6.67856
487.26	6.05967
487.464	6.61435
487.668	5.92744
487.872	5.93398
488.076	6.71019
488.28	5.93982
488.484	5.5333
488.688	5.42528
488.892	5.51462
489.096	5.22658
489.3	4.60219
489.504	4.34536
489.708	4.51036
489.912	4.45805
490.116	4.28386
490.32	3.69848
490.524	4.53457
490.728	4.97594
490.932	4.81668
491.136	4.86577
491.34	5.86593
491.544	6.17194
491.748	5.59866
491.951	5.70567
492.155	5.30011
492.359	5.45251
492.563	4.40851
492.767	4.15967
492.97	3.87051
493.174	3.33243
493.378	3.26145
493.582	2.77147
493.785	3.19055
493.989	3.38192
494.193	3.46727
494.396	3.06046
494.6	3.87608
494.804	3.19494
495.007	2.93014
495.211	2.85572
495.414	3.19877
495.618	3.33759
495.822	3.94522
496.025	3.07749
496.229	3.73232
496.432	2.85516
496.636	3.13224
496.839	3.10654
497.043	4.17059
497.246	3.24498
497.45	2.91448
497.653	3.02126
497.856	3.38723
498.06	2.5458
498.263	3.08571
498.467	2.86381
498.67	3.75397
498.873	3.51833
499.077	3.05246
499.28	2.99579
499.483	3.48728
499.686	3.79161
499.89	3.37664
500.093	3.68944
500.296	2.92899
500.499	4.23599
500.703	3.23221
500.906	3.5165
501.109	4.58846
501.312	3.43064
501.515	3.29249
501.719	3.64264
501.922	4.38961
502.125	3.47893
502.328	3.39338
502.531	2.58087
502.734	3.54485
502.937	2.25148
503.14	3.53528
503.343	2.72077
503.546	3.07637
503.749	2.96911
503.952	3.77185
504.155	2.67657
504.358	3.76743
504.561	3.30522
504.764	2.61506
504.967	3.28909
505.17	3.37392
505.373	4.41923
505.576	3.3952
505.778	3.7797
505.981	2.99818
506.184	4.18738
506.387	2.27918
506.59	4.48779
506.793	4.11626
506.995	3.62882
507.198	2.28346
507.401	3.50504
507.604	3.66331
507.806	2.5865
508.009	2.84242
508.212	3.62287
508.414	3.00596
508.617	2.8409
508.82	3.28036
509.022	4.03464
509.225	3.57047
509.427	2.30523
509.63	4.09426
509.833	3.24959
510.035	3.12898
510.238	2.44928
510.44	3.97109
510.643	1.98828
510.845	4.77697
511.048	3.6544
511.25	3.06607
511.453	3.23163
511.655	3.63691
511.858	3.12396
512.06	3.98594
512.262	3.29892
512.465	3.85907
512.667	2.96517
512.869	2.69492
513.072	3.60147
513.274	4.02039
513.476	3.76257
513.679	4.02087
513.881	2.86664
514.083	4.50368
514.286	3.02954
514.488	3.03429
514.69	2.77113
514.892	2.65325
515.094	3.98629
515.297	3.15974
515.499	3.55329
515.701	2.94339
515.903	4.63093
516.105	4.62763
516.307	3.90395
516.509	2.29571
516.711	2.69068
516.913	3.48471
517.116	3.27421
517.318	3.07361
517.52	3.97924
517.722	3.61267
517.924	2.57255
518.126	3.58843
518.328	2.92557
518.529	3.71199
518.731	4.50084
518.933	3.04556
519.135	3.29638
519.337	4.10079
519.539	3.72209
519.741	2.336
519.943	3.34079
520.145	3.29684
520.346	3.82717
520.548	3.32174
520.75	3.65065
520.952	3.13204
521.153	3.62873
521.355	3.76944
521.557	2.73476
521.759	3.62881
521.96	3.49518
522.162	2.91955
522.364	4.36295
522.565	2.97039
522.767	4.04863
522.969	4.33339
523.17	3.90388
523.372	3.81097
523.573	3.22147
523.775	3.23266
523.977	2.81799
524.178	4.41658
524.38	2.98781
524.581	3.88599
524.783	3.05392
524.984	3.86675
525.186	3.51564
525.387	3.95131
525.589	3.69807
525.79	3.46153
525.991	3.24621
526.193	4.01928
526.394	2.88238
526.596	4.02858
526.797	4.12505
526.998	3.80549
527.2	3.60714
527.401	5.13345
527.602	5.31998
527.803	6.92243
528.005	6.90887
528.206	7.45944
528.407	7.82728
528.608	7.48789
528.81	7.52416
529.011	6.90883
529.212	7.91743
529.413	6.97087
529.614	6.36459
529.815	6.35742
530.017	5.87475
530.218	4.9953
530.419	4.18243
530.62	4.37764
530.821	4.23143
531.022	3.25416
531.223	4.39308
531.424	4.17933
531.625	4.12295
531.826	3.9956
532.027	4.24307
532.228	5.24635
532.429	4.80387
532.63	4.81823
532.831	5.21382
533.032	5.22021
533.233	5.80524
533.433	5.51539
533.634	5.67482
533.835	4.94679
534.036	4.44368
534.237	4.54187
534.438	4.03751
534.638	3.39438
534.839	3.54852
535.04	3.85005
535.241	3.349
535.441	4.56754
535.642	3.73784
535.843	3.15738
536.043	3.33871
536.244	3.46115
536.445	3.4806
536.645	4.49571
536.846	3.95575
537.047	4.67513
537.247	3.29147
537.448	3.71697
537.648	3.57472
537.849	3.62087
538.049	3.45196
538.25	4.17236
538.451	3.94871
538.651	3.21484
538.851	4.06649
539.052	4.57831
539.252	4.17788
539.453	3.59226
539.653	3.77502
539.854	3.57723
540.054	3.73035
540.254	4.86176
540.455	5.35729
540.655	4.68233
540.855	5.5788
541.056	6.1591
541.256	5.56401
541.456	6.74696
541.657	5.65076
541.857	6.73647
542.057	5.18342
542.257	5.00479
542.458	5.58456
542.658	5.55502
542.858	4.05457
543.058	5.00237
543.258	4.3717
543.458	3.31353
543.659	3.07788
543.859	4.10364
544.059	4.04644
544.259	3.47596
544.459	4.22452
544.659	3.43538
544.859	4.071
545.059	3.30774
545.259	4.31109
545.459	3.91349
545.659	4.40578
545.859	3.82145
546.059	3.78082
546.259	3.31227
546.459	2.80536
546.659	3.06157
546.859	4.21447
547.059	3.90857
547.258	4.05391
547.458	4.05304
547.658	3.18173
547.858	3.1386
548.058	4.04391
548.258	3.8509
548.457	3.20064
548.657	5.91769
548.857	3.7097
549.057	4.58022
549.256	4.31861
549.456	3.91393
549.656	2.62182
549.855	5.67628
550.055	3.99295
550.255	5.56686
550.454	4.23998
550.654	4.92948
550.853	5.13271
551.053	4.9716
551.253	4.41414
551.452	4.506
551.652	3.25441
551.851	2.73576
552.051	3.74342
552.25	3.65685
552.45	3.47122
552.649	3.86482
552.849	3.35536
553.048	4.07696
553.248	4.33793
553.447	3.25551
553.646	4.84987
553.846	5.58588
554.045	4.96201
554.244	3.44708
554.444	5.67695
554.643	3.57987
554.842	5.36419
555.042	6.13779
555.241	3.79092
555.44	3.62339
555.64	4.67477
555.839	5.8835
556.038	4.74713
556.237	3.94385
556.436	4.16538
556.636	4.66432
556.835	3.65364
557.034	5.75031
557.233	4.14522
557.432	3.24457
557.631	5.31355
557.83	4.28032
558.029	3.88636
558.228	4.03394
558.427	3.4972
558.626	4.73145
558.825	3.54201
559.024	4.77627
559.223	6.05596
559.422	4.14546
559.621	4.75244
559.82	2.22411
560.019	4.27209
560.218	4.03026
560.417	1.71124
560.616	3.74502
560.815	7.19417
561.014	2.97622
561.212	5.42911
561.411	4.63395
561.61	2.90139
561.809	4.15901
562.008	5.72862
562.206	4.08703
562.405	4.64572
562.604	4.36272
562.803	4.4043
563.001	4.16343
563.2	3.08866
563.399	4.90077
563.597	3.31353
563.796	4.53104
563.995	3.04736
564.193	4.69003
564.392	3.81342
564.59	6.16673
564.789	2.50249
564.988	3.75392
565.186	4.19814
565.385	3.90675
565.583	3.68377
565.782	4.1307
565.98	3.71268
566.179	3.89851
566.377	3.06229
566.575	3.35361
566.774	5.12036
566.972	4.89952
567.171	5.98264
567.369	5.23838
567.567	4.13488
567.766	4.52144
567.964	2.55416
568.162	4.63305
568.361	5.36118
568.559	4.13361
568.757	4.64537
568.956	4.4207
569.154	4.18389
569.352	4.91129
569.55	4.26365
569.748	4.30968
569.947	3.32998
570.145	3.56718
570.343	3.30113
570.541	5.26101
570.739	2.99605
570.937	4.2438
571.135	4.34191
571.333	5.68491
571.532	5.43625
571.73	4.2712
571.928	4.9544
572.126	4.49944
572.324	3.75854
572.522	5.33869
572.72	6.50657
572.918	4.09506
573.116	4.36315
573.313	4.24985
573.511	4.03954
573.709	3.8301
573.907	4.89088
574.105	3.84558
574.303	2.80288
574.501	3.01783
574.699	4.48259
574.896	4.60234
575.094	4.71032
575.292	3.01347
575.49	4.97415
575.688	4.20196
575.885	5.3704
576.083	6.09951
576.281	4.5186
576.478	3.6968
576.676	5.06657
576.874	3.10081
577.071	3.96393
577.269	6.72118
577.467	4.14696
577.664	4.31596
577.862	5.26307
578.059	3.76917
578.257	5.41974
578.455	4.54218
578.652	4.55917
578.85	2.57849
579.047	4.85536
579.245	4.62781
579.442	4.46237
579.64	4.651
579.837	2.82306
580.034	7.31568
580.232	4.36428
580.429	3.6119
580.627	5.53592
580.824	5.89483
581.021	5.39109
581.219	4.47369
581.416	3.66566
581.613	6.20631
581.811	5.9632
582.008	3.82455
582.205	5.35489
582.402	4.93976
582.6	6.26708
582.797	4.74512
582.994	5.3419
583.191	5.77974
583.388	5.05066
583.586	5.89531
583.783	6.13789
583.98	4.01569
584.177	4.87537
584.374	1.81404
584.571	4.71327
584.768	4.9082
584.965	4.58371
585.162	5.8457
585.359	6.90174
585.556	4.96015
585.753	5.34661
585.95	3.57316
586.147	4.14073
586.344	5.71362
586.541	4.77811
586.738	3.77665
586.935	4.76913
587.132	4.12996
587.329	5.92107
587.526	4.60193
587.722	10.16809
587.919	3.47142
588.116	5.12171
588.313	6.6009
588.51	7.31113
588.706	4.51774
588.903	5.44104
589.1	5.94239
589.297	7.85097
589.493	4.4735
589.69	5.52262
589.887	4.21802
590.083	3.43064
590.28	4.00738
590.477	6.04228
590.673	5.61176
590.87	6.68152
591.067	4.43231
591.263	5.72322
591.46	5.62592
591.656	4.90946
591.853	6.72743
592.049	4.32657
592.246	4.21111
592.442	6.59013
592.639	6.33786
592.835	3.57262
593.032	5.36516
593.228	3.44718
593.425	3.44293
593.621	3.33744
593.817	5.25089
594.014	4.14707
594.21	4.92536
594.406	5.97202
594.603	5.32766
594.799	4.21332
594.995	2.24104
595.192	5.80559
595.388	4.2261
595.584	4.13045
595.78	3.00441
595.977	7.01776
596.173	6.29277
596.369	4.22429
596.565	3.51015
596.761	3.01453
596.957	5.5567
597.154	3.63404
597.35	4.0583
597.546	3.67411
597.742	5.13231
597.938	4.82661
598.134	3.82314
598.33	4.84803
598.526	6.91135
598.722	5.51946
598.918	6.94904
599.114	5.80647
599.31	4.12483
599.506	5.15032
599.702	4.32838
599.898	5.70258
600.094	6.56161
600.29	5.9942
600.485	6.08998
600.681	4.83188
600.877	7.34008
601.073	5.02372
601.269	7.46859
601.465	7.08409
601.66	4.06384
601.856	2.99486
602.052	7.16543
602.248	4.44541
602.443	2.49541
602.639	3.34181
602.835	3.67921
603.03	4.14988
603.226	5.7114
603.422	3.55135
603.617	4.44873
603.813	3.97502
604.009	3.95317
604.204	5.72978
604.4	2.71075
604.595	5.45837
604.791	3.39226
604.986	4.85329
605.182	3.49586
605.377	4.05478
605.573	3.79154
605.768	4.55289
605.964	5.19409
606.159	5.65121
606.355	6.57321
606.55	4.59084
606.746	6.25093
606.941	5.06537
607.136	7.53037
607.332	8.70455
607.527	3.50714
607.722	5.44367
607.918	4.95168
608.113	4.09848
608.308	5.54947
608.503	5.3975
608.699	5.08554
608.894	5.21959
609.089	3.87643
609.284	5.04164
609.479	4.1235
609.675	5.29416
609.87	4.19161
610.065	5.45448
610.26	5.96401
610.455	5.97978
610.65	4.59897
610.845	5.08837
611.04	6.31976
611.235	4.90548
611.43	4.77886
611.625	3.52464
611.82	7.06442
612.015	4.33069
612.21	7.45933
612.405	3.49699
612.6	8.0137
612.795	7.29509
612.99	6.6602
613.185	3.91816
613.38	4.47991
613.575	5.86504
613.77	9.70934
613.965	3.39378
614.159	4.6341
614.354	7.49052
614.549	7.27895
614.744	6.65397
614.938	4.40571
615.133	3.63631
615.328	7.47306
615.523	7.50302
615.717	10.2176
615.912	4.87822
616.107	5.82802
616.301	5.28283
616.496	4.45736
616.691	8.25539
616.885	6.83576
617.08	9.60112
617.274	7.34433
617.469	9.01105
617.664	6.86528
617.858	4.75013
618.053	6.28557
618.247	5.44546
618.442	2.43942
618.636	7.68764
618.831	5.5496
619.025	5.07722
619.219	10.1734
619.414	0.92225
619.608	5.90402
619.803	4.83002
619.997	9.30356
620.191	7.61714
620.386	6.59833
620.58	6.09613
620.774	3.58065
620.969	3.45324
621.163	6.14167
621.357	3.86545
621.551	5.38781
621.746	6.31427
621.94	6.15545
622.134	11.81688
622.328	9.32427
622.522	3.72671
622.716	7.82414
622.911	7.63088
623.105	7.68981
623.299	6.58317
623.493	11.28763
623.687	4.92752
623.881	5.48672
624.075	7.09989
624.269	7.82943
624.463	2.76243
624.657	3.5797
624.851	7.00816
625.045	7.50943
625.239	7.13495
625.433	5.01294
625.627	8.31201
625.821	4.86357
626.015	4.43153
626.209	5.67108
626.403	3.39648
626.596	6.30861
626.79	6.82643
626.984	3.7019
627.178	6.21752
627.372	6.26471
627.565	6.87562
627.759	3.32669
627.953	3.91601
628.147	6.41532
628.34	6.8024
628.534	9.34978
628.728	5.46561
628.921	7.42619
629.115	7.14887
629.309	7.20577
629.502	7.81589
629.696	6.29527
629.89	6.01454
630.083	6.37509
630.277	7.1374
630.47	9.49038
630.664	5.89125
630.857	3.83046
631.051	8.02105
631.244	8.29803
631.438	8.05118
631.631	4.95092
631.825	8.62253
632.018	7.28159
632.212	9.55966
632.405	8.36121
632.598	5.05519
632.792	6.95336
632.985	2.14938
633.178	5.63745
633.372	6.3228
633.565	5.75191
633.758	8.68201
633.952	4.9482
634.145	4.93143
634.338	5.50489
634.531	5.64335
634.724	5.19474
634.918	6.54021
635.111	5.75029
635.304	5.41176
635.497	10.49214
635.69	7.14651
635.883	8.53053
636.077	4.42307
636.27	7.50035
636.463	6.73949
636.656	7.34979
636.849	5.48529
637.042	7.47635
637.235	10.19494
637.428	8.02173
637.621	8.59529
637.814	9.95992
638.007	9.99559
638.2	9.83597
638.393	10.95484
638.586	4.42783
638.778	6.06701
638.971	7.40758
639.164	10.30303
639.357	8.40808
639.55	9.95388
639.743	9.09478
639.935	8.84927
640.128	11.46253
640.321	8.4144
640.514	7.73289
640.707	12.53018
640.899	8.78809
641.092	3.99362
641.285	22.78464
641.477	3.00863
641.67	12.24078
641.863	9.9113
642.055	8.042
642.248	7.29558
642.441	6.86889
642.633	8.67969
642.826	10.15435
643.018	10.51936
643.211	11.87656
643.403	11.6619
643.596	12.22262
643.788	11.94562
643.981	6.68851
644.173	9.63606
644.366	7.36438
644.558	4.62993
644.751	10.17844
644.943	5.17194
645.135	12.19233
645.328	12.41164
645.52	9.72474
645.712	10.11706
645.905	15.41109
646.097	6.0646
646.289	9.0781
646.482	12.27631
646.674	6.70848
646.866	10.79294
647.058	9.04016
647.251	6.21104
647.443	7.10188
647.635	7.63316
647.827	5.88453
648.019	5.58842
648.211	8.30749
648.404	8.53004
648.596	11.84507
648.788	8.89272
648.98	8.67965
649.172	9.18233
649.364	9.36692
649.556	4.28163
649.748	13.91469
649.94	6.69228
650.132	9.644
650.324	6.49565
650.516	6.37852
650.708	11.13684
650.9	5.24138
651.092	7.06239
651.284	4.49146
651.476	5.79085
651.667	9.75725
651.859	11.16757
652.051	8.01738
652.243	9.03781
652.435	7.31669
652.627	9.27776
652.818	8.967
653.01	4.65561
653.202	6.48208
653.394	7.77512
653.585	9.81259
653.777	19.59132
653.969	12.2028
654.16	12.04824
654.352	6.45223
654.544	8.65605
654.735	11.55058
654.927	9.04911
655.118	12.68873
655.31	10.9621
655.502	11.13929
655.693	7.32661
655.885	10.06824
656.076	12.2766
656.268	8.91406
656.459	12.31099
656.651	12.51575
656.842	7.45308
657.034	6.99432
657.225	10.44369
657.416	12.15574
657.608	11.4753
657.799	8.36826
657.99	10.85445
658.182	6.19818
658.373	6.88419
658.564	10.09254
658.756	8.12385
658.947	7.65808
659.138	5.82576
659.33	6.52107
659.521	6.45538
659.712	7.49704
659.903	7.2887
660.094	6.51223
660.286	4.67451
660.477	12.82009
660.668	9.64687
660.859	8.76256
661.05	5.54568
661.241	10.4824
661.432	9.97027
661.623	7.77112
661.814	7.36424
662.006	4.68409
662.197	10.23866
662.388	11.9026
662.579	9.88489
662.77	13.11961
662.96	17.05423
663.151	11.89762
663.342	4.92344
663.533	10.1155
663.724	8.89426
663.915	14.11614
664.106	9.34178
664.297	14.84943
664.488	11.67452
664.678	8.79086
664.869	11.39746
665.06	12.22435
665.251	9.82354
665.442	10.76772
665.632	7.71764
665.823	15.47642
666.014	2.61575
666.204	11.61435
666.395	13.36986
666.586	18.00514
666.776	12.42312
666.967	15.40038
667.158	10.27258
667.348	13.85675
667.539	7.5418
667.729	12.08276
667.92	7.50387
668.111	12.61682
668.301	11.95428
668.492	9.12507
668.682	9.55756
668.873	9.3542
669.063	7.28754
669.253	9.99405
669.444	13.33638
669.634	9.02542
669.825	15.36075
670.015	13.07589
670.206	7.30715
670.396	16.18462
670.586	9.97748
670.777	12.02485
670.967	4.82966
671.157	9.75537
671.347	8.78864
671.538	14.9002
671.728	11.99445
671.918	15.95151
672.108	13.454
672.299	10.32943
672.489	12.1105
672.679	8.66759
672.869	12.60747
673.059	15.81996
673.249	11.85389
673.44	8.64973
673.63	10.35248
673.82	13.18719
674.01	8.13193
674.2	12.15667
674.39	20.16095
674.58	12.7972
674.77	10.82533
674.96	10.64963
675.15	23.79542
675.34	13.90824
675.53	11.3396
675.72	9.7299
675.91	6.72824
676.099	16.40024
676.289	18.33359
676.479	14.58667
676.669	9.97318
676.859	13.06265
677.049	7.88851
677.238	11.00342
677.428	17.05112
677.618	11.94468
677.808	14.25615
677.997	12.69668
678.187	7.59586
678.377	10.53683
678.567	8.81263
678.756	9.41363
678.946	9.5256
679.136	5.99426
679.325	7.84065
679.515	7.3507
679.704	6.31533
679.894	11.813
680.084	10.71353
680.273	14.15585
680.463	7.35216
680.652	7.1642
680.842	9.74503
681.031	12.61039
681.221	7.58941
681.41	11.36339
681.6	9.43675
681.789	12.67981
681.978	14.43055
682.168	11.7629
682.357	12.07296
682.547	13.11022
682.736	12.19135
682.925	15.81419
683.115	15.24357
683.304	14.52305
683.493	12.38649
683.682	13.27849
683.872	12.69351
684.061	15.76183
684.25	13.88873
684.439	17.4849
684.629	13.96337
684.818	22.95531
685.007	12.42147
685.196	11.7636
685.385	17.92107
685.574	14.04312
685.763	13.08142
685.952	12.53048
686.142	7.86777
686.331	16.67776
686.52	6.36436
686.709	17.20909
686.898	18.02549
687.087	14.1383
687.276	18.41545
687.465	16.06046
687.654	10.91749
687.842	18.1065
688.031	7.45989
688.22	17.00378
688.409	13.38791
688.598	13.05199
688.787	22.60377
688.976	12.81893
689.165	19.67377
689.353	11.86336
689.542	14.68915
689.731	15.83211
689.92	20.76246
690.108	17.10049
690.297	12.51499
690.486	13.49156
690.675	16.161
690.863	19.87106
691.052	20.26451
691.241	15.56122
691.429	14.71246
691.618	19.87832
691.806	8.67683
691.995	13.52652
692.184	13.37969
692.372	12.32106
692.561	14.32981
692.749	14.57065
692.938	23.40997
693.126	16.87335
693.315	14.03088
693.503	16.72925
693.692	17.1053
693.88	18.75351
694.068	23.6146
694.257	14.17784
694.445	14.95994
694.634	6.00519
694.822	19.33507
695.01	20.07525
695.199	19.93294
695.387	21.40182
695.575	19.63582
695.763	14.63089
695.952	13.63397
696.14	7.75794
696.328	12.41909
696.516	15.2075
696.705	15.89011
696.893	15.33861
697.081	7.92907
697.269	16.38435
697.457	9.72682
697.645	8.61658
697.833	15.74372
698.021	9.22348
698.21	10.11957
698.398	11.71989
698.586	8.03611
698.774	6.72846
698.962	10.63516
699.15	8.15787
699.338	6.85842
699.526	13.78185
699.714	9.904
699.901	10.11039
700.089	16.12991
700.277	10.12557
700.465	12.33915
700.653	16.69996
700.841	15.45141
701.029	11.27085
701.217	19.05232
701.404	15.25265
701.592	20.25817
701.78	23.13359
701.968	13.60547
702.155	14.63253
702.343	8.93265
702.531	20.59651
702.718	17.30597
702.906	14.68659
703.094	12.16915
703.281	20.70951
703.469	14.18582
703.657	20.10374
703.844	31.15991
704.032	22.52731
704.219	13.61203
704.407	16.91904
704.595	23.00937
704.782	17.2222
704.97	14.63923
705.157	14.05118
705.345	23.65583
705.532	29.00827
705.719	18.82381
705.907	22.3231
706.094	16.49188
706.282	25.40342
706.469	14.96794
706.656	16.83892
706.844	15.69343
707.031	22.5547
707.218	17.43751
707.406	24.4832
707.593	20.9785
707.78	19.35091
707.968	16.30138
708.155	12.81664
708.342	19.96037
708.529	19.09717
708.716	17.93932
708.904	24.57267
709.091	20.59634
709.278	11.99349
709.465	24.93013
709.652	27.65822
709.839	24.37979
710.026	19.35827
710.213	10.27431
710.4	19.46039
710.587	21.71946
710.774	24.07122
710.961	23.29195
711.148	18.57274
711.335	23.50662
711.522	18.11763
711.709	18.59443
711.896	28.38337
712.083	22.9841
712.27	13.70632
712.457	19.33924
712.644	11.08887
712.831	28.16852
713.017	19.61111
713.204	22.92212
713.391	15.31478
713.578	24.45607
713.765	24.77477
713.951	22.04311
714.138	35.88667
714.325	22.28236
714.512	19.5749
714.698	15.86814
714.885	27.53362
715.072	20.969
715.258	19.40191
715.445	16.37542
715.631	25.46698
715.818	6.55393
716.005	16.25236
716.191	22.65863
716.378	19.30658
716.564	23.99905
716.751	15.24189
716.937	17.8586
717.124	26.40921
717.31	16.66704
717.497	28.54167
717.683	16.71615
717.869	33.58149
718.056	16.63989
718.242	24.62432
718.429	20.34321
718.615	14.771
718.801	20.84343
718.988	26.76446
719.174	23.65838
719.36	20.01887
719.547	28.25638
719.733	22.96277
719.919	23.46431
720.105	26.36945
720.291	21.18013
720.478	21.87643
720.664	20.83933
720.85	18.27318
721.036	41.07657
721.222	30.93633
721.408	20.49541
721.595	35.18592
721.781	33.12928
721.967	30.55434
722.153	32.68362
722.339	26.55776
722.525	26.12425
722.711	16.09675
722.897	13.64261
723.083	19.00946
723.269	29.37043
723.455	38.67075
723.641	42.76068
723.827	23.65466
724.012	27.49772
724.198	22.23063
724.384	30.38004
724.57	26.35856
724.756	14.15148
724.942	10.78507
725.127	29.99982
725.313	33.15124
725.499	31.64882
725.685	36.44831
725.87	25.25842
726.056	18.42223
726.242	31.54171
726.428	14.82437
726.613	29.8777
726.799	22.21273
726.985	17.3939
727.17	13.13669
727.356	34.39159
727.541	17.54788
727.727	22.42348
727.913	29.16891
728.098	21.03543
728.284	27.31454
728.469	15.42978
728.655	18.20294
728.84	28.37808
729.026	27.97951
729.211	29.8504
729.397	25.88083
729.582	28.6114
729.767	23.38642
729.953	26.2477
730.138	30.93744
730.323	10.61186
730.509	15.93022
730.694	34.70228
730.879	26.56414
731.065	25.99625
731.25	38.47438
731.435	27.11277
731.621	14.70978
731.806	20.41477
731.991	26.30183
732.176	15.38728
732.361	32.35128
732.547	25.10252
732.732	14.13295
732.917	40.55921
733.102	16.56818
733.287	19.29379
733.472	23.83897
733.657	25.43673
733.842	14.713
734.027	22.55129
734.212	22.60711
734.397	20.22259
734.582	25.66276
734.767	30.91568
734.952	36.06254
735.137	9.01674
735.322	36.22134
735.507	27.56926
735.692	29.04139
735.877	42.60584
736.062	38.35354
736.247	28.25382
736.431	25.23974
736.616	36.00967
736.801	28.2462
736.986	26.8019
737.171	18.8184
737.355	15.39102
737.54	36.63443
737.725	25.47459
737.909	48.26147
738.094	21.85695
738.279	31.47689
738.463	24.50747
738.648	31.52965
738.833	28.89184
739.017	40.82384
739.202	23.48304
739.386	26.68772
739.571	19.42341
739.756	31.22846
739.94	26.20856
740.125	32.99838
740.309	20.22193
740.494	33.65766
740.678	28.20009
740.863	30.35358
741.047	29.0258
741.231	37.02259
741.416	20.99705
741.6	38.76064
741.785	21.79933
741.969	32.86656
742.153	36.61662
742.338	11.15909
742.522	26.89947
742.706	34.75828
742.89	17.69289
743.075	27.72609
743.259	38.55551
743.443	34.08257
743.627	37.12917
743.812	46.79555
743.996	9.64052
744.18	27.42635
744.364	24.5969
744.548	51.41814
744.732	26.8978
744.916	33.44055
745.1	31.89914
745.285	25.68793
745.469	32.61639
745.653	44.14412
745.837	16.47838
746.021	49.48595
746.205	37.39589
746.389	29.89006
746.573	26.79463
746.757	42.19191
746.94	23.13087
747.124	38.1162
747.308	19.59774
747.492	39.41003
747.676	23.98045
747.86	47.80832
748.044	24.12466
748.227	15.38928
748.411	62.57394
748.595	31.38636
748.779	22.12164
748.963	33.08993
749.146	27.92591
749.33	23.78653
749.514	19.74073
749.697	40.44917
749.881	22.49982
750.065	19.60249
750.248	30.71633
750.432	51.21803
750.616	28.30877
750.799	19.55067
750.983	48.02312
751.166	54.44124
751.35	17.47118
751.533	35.65613
751.717	41.74165
751.9	45.75508
752.084	24.53522
752.267	19.80005
752.451	22.6707
752.634	29.76617
752.818	34.63912
753.001	38.23294
753.184	38.85546
753.368	34.39937
753.551	0.63671
753.734	22.6787
753.918	48.45737
754.101	23.05514
754.284	35.56888
754.467	26.68577
754.651	24.13504
754.834	22.2129
755.017	40.04843
755.2	38.04724
755.384	18.84415
755.567	37.44628
755.75	41.28337
755.933	27.58439
756.116	33.25181
756.299	24.43142
756.482	23.16327
756.665	34.71486
756.848	29.71304
757.032	33.63893
757.215	16.82051
757.398	23.13559
757.581	22.55216
757.764	55.46935
757.947	30.40167
758.129	41.69959
758.312	5.01883
758.495	29.2382
758.678	28.52531
758.861	27.20466
759.044	51.87168
759.227	23.88015
759.41	22.48614
759.592	36.00807
759.775	29.76556
759.958	39.74083
760.141	17.53819
760.324	53.01785
760.506	44.63292
760.689	40.76952
760.872	54.65943
761.054	34.21503
761.237	27.99234
761.42	33.60121
761.602	40.13935
761.785	33.25502
761.968	38.35712
762.15	49.15985
762.333	26.60191
762.515	34.07555
762.698	25.41326
762.88	33.8644
763.063	30.86681
763.245	34.93702
763.428	20.50703
763.61	22.30837
763.793	17.71968
763.975	28.97811
764.158	24.17036
764.34	22.57031
764.522	19.13898
764.705	22.72942
764.887	40.77074
765.069	15.15282
765.252	36.7498
765.434	37.40553
765.616	28.44117
765.799	24.68106
765.981	37.65611
766.163	21.91966
766.345	39.65018
766.528	23.72691
766.71	7.76712
766.892	33.23934
767.074	43.17578
767.256	28.70579
767.438	50.50433
767.62	35.09895
767.802	55.13824
767.985	41.70083
768.167	53.64692
768.349	24.04004
768.531	42.70541
768.713	37.36431
768.895	44.87429
769.077	35.74328
769.259	58.89889
769.441	91.48114
769.623	46.29908
769.804	54.20832
769.986	54.20446
770.168	67.99408
770.35	78.71305
770.532	55.9222
770.714	61.50279
770.896	62.97785
771.077	25.98821
771.259	64.67328
771.441	54.58815
771.623	71.10315
771.804	90.14042
771.986	24.00813
772.168	42.82495
772.35	66.22511
772.531	90.71978
772.713	51.74757
772.894	72.02444
773.076	50.20532
773.258	40.98187
773.439	68.50868
773.621	81.1665
773.802	31.83465
773.984	46.18475
774.166	55.52032
774.347	80.45654
774.529	68.35864
774.71	17.80849
774.891	46.39068
775.073	44.17646
775.254	77.96358
775.436	39.58136
775.617	84.17687
775.799	40.68751
775.98	81.00456
776.161	79.96664
776.343	83.57956
776.524	48.78644
776.705	48.27459
776.886	24.42326
777.068	55.32899
777.249	101.03585
777.43	85.83678
777.611	33.9825
777.793	46.69746
777.974	80.08381
778.155	44.46819
778.336	36.86863
778.517	92.5952
778.698	40.14557
778.879	21.03162
779.061	9.45361
779.242	61.10908
779.423	59.99245
779.604	47.77772
779.785	50.36878
779.966	58.27204
780.147	68.95177
780.328	74.48796
780.509	103.98003
780.69	67.74866
780.871	40.31037
781.051	25.2964
781.232	56.29737
781.413	57.68581
781.594	45.07163
781.775	43.91698
781.956	41.02719
782.137	16.40901
782.317	44.16079
782.498	58.1807
782.679	58.01544
782.86	55.05313
783.04	38.33873
783.221	56.76905
783.402	89.73167
783.583	54.7144
783.763	65.21862
783.944	44.29754
784.124	27.5923
784.305	85.93733
784.486	62.97419
784.666	54.52806
784.847	24.52713
785.027	103.14196
785.208	39.02355
785.388	39.24539
785.569	41.41256
785.749	46.48318
785.93	43.89384
786.11	25.45051
786.291	57.85443
786.471	58.17464
786.652	66.50776
786.832	48.80121
787.012	58.33103
787.193	29.91022
787.373	52.27456
787.553	42.66293
787.734	55.60049
787.914	44.77817
788.094	59.68729
788.275	55.5276
788.455	41.81736
788.635	29.10644
788.815	54.42979
788.995	33.25099
789.176	27.47128
789.356	36.2545
789.536	47.96588
789.716	61.5311
789.896	37.45048
790.076	42.50641
790.256	56.13505
790.436	12.36828
790.616	37.44004
790.796	58.22473
790.976	45.86892
791.156	43.72938
791.336	69.5734
791.516	56.57188
791.696	48.90909
791.876	26.83243
792.056	52.42825
792.236	66.06554
792.416	64.94097
792.596	61.08444
792.776	56.83487
792.956	62.80769
793.135	82.57229
793.315	30.67607
793.495	76.44134
793.675	63.7885
793.854	67.27468
794.034	70.25504
794.214	32.05061
794.394	63.61457
794.573	71.3616
794.753	51.81528
794.933	40.14944
795.112	53.85199
795.292	64.04412
795.472	87.04228
795.651	27.33862
795.831	54.46887
796.01	47.08976
796.19	45.71962
796.369	45.07221
796.549	60.93794
796.728	47.84099
796.908	31.0414
797.087	32.71232
797.267	48.66629
797.446	32.61588
797.626	59.35208
797.805	60.78417
797.984	37.09973
798.164	63.27289
798.343	34.76369
798.522	55.31396
798.702	52.05439
798.881	28.4127
799.06	46.94127
799.239	21.02827
799.419	32.72738
799.598	78.9212
799.777	62.22823
799.956	73.6065
800.136	47.04397
800.315	38.25032
800.494	58.79501
800.673	68.87573
800.852	62.79671
801.031	72.50164
801.21	65.74414
801.389	43.5437
801.568	57.15487
801.747	88.79131
801.926	53.96831
802.105	79.22388
802.284	45.55536
802.463	80.42756
802.642	53.74978
802.821	55.98481
803	78.14509
803.179	71.47958
803.358	77.41917
803.537	41.66589
803.716	62.78096
803.895	40.81748
804.073	52.12089
804.252	40.95947
804.431	59.14158
804.61	53.70499
804.789	79.1665
804.967	45.21562
805.146	44.24245
805.325	92.10523
805.503	60.23279
805.682	32.23059
805.861	101.02654
806.039	76.42635
806.218	38.87818
806.397	58.75648
806.575	53.8956
806.754	55.84275
806.932	36.28567
807.111	83.52989
807.289	69.73263
807.468	54.67484
807.646	73.39979
807.825	65.96735
808.003	57.53196
808.182	71.48772
808.36	56.41656
808.539	39.58718
808.717	83.4264
808.895	40.93713
809.074	61.21944
809.252	52.69464
809.43	66.61883
809.609	86.24707
809.787	93.03478
809.965	50.88115
810.144	53.57071
810.322	47.11729
810.5	64.31435
810.678	53.09639
810.856	102.61727
811.035	75.25705
811.213	74.16243
811.391	81.80816
811.569	59.91898
811.747	117.81375
811.925	85.6986
812.103	41.36662
812.281	52.63405
812.459	98.93771
812.637	96.40798
812.816	77.82034
812.994	94.86111
813.171	75.23687
813.349	72.55245
813.527	92.5634
813.705	89.4192
813.883	103.6079
814.061	79.31942
814.239	101.09482
814.417	106.12141
814.595	67.33311
814.773	66.98126
814.95	65.02876
815.128	71.73797
815.306	59.74987
815.484	56.21273
815.662	43.75251
815.839	36.34165
816.017	47.79418
816.195	86.96632
816.372	56.43187
816.55	75.05535
816.728	87.30819
816.905	57.91106
817.083	89.27523
817.261	55.84544
817.438	112.73265
817.616	98.27563
817.793	48.91102
817.971	73.43657
818.148	71.89749
818.326	89.99845
818.503	67.51881
818.681	91.39104
818.858	49.2198
819.036	57.84552
819.213	63.00022
819.391	43.45203
819.568	40.48551
819.745	38.1296
819.923	68.01955
820.1	44.3387
820.277	39.03247
820.455	47.02377
820.632	47.15055
820.809	48.50198
820.986	29.28676
821.164	22.29477
821.341	20.04179
821.518	28.33405
821.695	18.24243
821.872	16.04164
822.05	14.31507
822.227	9.92152
822.404	10.97591
822.581	14.36861
822.758	10.40225
822.935	10.63133
823.112	13.41807
823.289	9.40238
823.466	13.46797
823.643	12.45746
823.82	17.2166
823.997	14.84269
824.174	19.23062
824.351	29.41813
824.528	27.57986
824.705	22.1695
824.882	27.30657
825.059	36.54124
825.236	21.82634
825.412	23.41108
825.589	31.69128
825.766	47.98234
825.943	27.30023
826.12	32.81922
826.296	20.09924
826.473	27.49171
826.65	25.83112
826.827	34.18821
827.003	21.16569
827.18	22.84866
827.357	27.69672
827.533	24.04239
827.71	10.63378
827.887	21.04397
828.063	25.89082
828.24	21.7631
828.416	33.10292
828.593	25.49691
828.769	40.99668
828.946	47.69506
829.122	49.91239
829.299	49.42993
829.475	23.95368
829.652	43.07171
829.828	79.62371
830.005	48.55941
830.181	62.33417
830.357	40.83042
830.534	69.16064
830.71	50.88663
830.886	65.55095
831.063	61.64915
831.239	85.1224
831.415	36.96627
831.592	87.18751
831.768	49.00901
831.944	37.59653
832.12	82.95186
832.296	73.97617
832.473	63.6292
832.649	46.37522
832.825	59.82616
833.001	32.54875
833.177	51.05172
833.353	45.18535
833.529	24.03651
833.705	35.71348
833.881	25.80347
834.058	24.55509
834.234	27.58019
834.41	28.11605
834.586	22.19595
834.761	28.06118
834.937	32.66214
835.113	34.08762
835.289	29.03433
835.465	40.14146
835.641	34.19182
835.817	38.84685
835.993	75.56358
836.169	32.27932
836.344	54.848
836.52	62.92051
836.696	65.53088
836.872	39.10299
837.048	132.26476
837.223	44.96126
837.399	112.67689
837.575	83.29979
837.75	75.14449
837.926	108.10485
838.102	176.53559
838.277	130.67514
838.453	160.0428
838.628	155.56912
838.804	55.47103
838.98	148.53037
839.155	74.19637
839.331	98.27996
839.506	75.09075
839.682	68.80218
839.857	91.24891
840.033	105.33598
840.208	48.47035
840.384	24.12986
840.559	50.21917
840.734	83.65747
840.91	118.67845
841.085	70.17464
841.26	70.80413
841.436	67.9426
841.611	62.04494
841.786	106.36888
841.962	146.80231
842.137	87.21814
842.312	51.58876
842.487	74.49793
842.663	65.67791
842.838	80.63432
843.013	242.53346
843.188	132.68656
843.363	117.63594
843.538	224.1296
843.714	213.03984
843.889	218.38272
844.064	227.74384
844.239	193.85077
844.414	269.15371
844.589	155.53665
844.764	260.66469
844.939	246.70982
845.114	290.41126
845.289	296.54604
845.464	380.21681
845.639	259.28302
845.814	111.42734
845.989	170.19405
846.163	182.04238
846.338	217.32782
846.513	304.77704
846.688	192.24534
846.863	228.34198
847.038	166.42996
847.212	179.39261
847.387	199.15825
847.562	220.32532
847.737	247.48597
847.911	107.3691
848.086	130.16973
848.261	343.77686
848.435	201.81623
848.61	295.77977
848.785	119.23271
848.959	279.27041
849.134	339.93822
849.308	421.91333
849.483	191.62873
849.658	321.19027
849.832	160.3467
850.007	148.28793
850.181	470.35758
850.356	169.24744
850.53	329.26375
850.705	147.87819
850.879	84.2027
851.053	183.8164
851.228	179.20157
851.402	251.85922
851.577	281.96715
851.751	365.49611
851.925	227.58062
852.099	83.03012
852.274	139.43784
852.448	201.58183
852.622	269.15287
852.797	179.46737
852.971	220.22876
853.145	278.57043
853.319	442.4255
853.493	318.63964
853.668	211.07408
853.842	376.50444
854.016	313.40047
854.19	392.97792
854.364	222.64118
854.538	273.42215
854.712	298.87061
854.886	236.11969
855.06	229.22153
855.234	79.70677
855.408	346.82202
855.582	279.6887
855.756	322.52671
855.93	319.88531
856.104	264.47796
856.278	290.83112
856.452	225.82335
856.626	294.60435
856.8	410.77675
856.973	268.40254
857.147	301.34277
857.321	290.15843
857.495	279.43673
857.669	239.78648
857.842	201.28346
858.016	303.76006
858.19	137.0841
858.364	520.78882
858.537	193.73707
858.711	230.19129
858.885	192.84434
859.058	151.70503
859.232	105.7607
859.405	108.52083
859.579	301.04068
859.753	286.75188
859.926	159.57466
860.1	115.57432
860.273	237.27992
860.447	354.84902
860.62	207.04414
860.794	368.9349
860.967	220.73079
861.141	336.2575
861.314	503.53576
861.487	235.01958
861.661	312.90089
861.834	391.43918
862.008	294.20924
862.181	229.7759
862.354	258.54737
862.528	287.53983
862.701	187.13108
862.874	129.42725
863.047	188.76956
863.221	191.86116
863.394	88.70109
863.567	300.90515
863.74	62.47476
863.913	326.07872
864.087	285.54237
864.26	303.60374
864.433	227.7547
864.606	407.30433
864.779	202.63915
864.952	109.41613
865.125	195.37792
865.298	215.73331
865.471	202.34396
865.644	372.97544
865.817	285.90345
865.99	307.64908
866.163	321.26173
866.336	198.11162
866.509	210.30673
866.682	200.27908
866.855	308.95065
867.028	113.73068
867.2	256.45018
867.373	72.29954
867.546	215.65401
867.719	414.09293
867.892	261.63781
868.064	140.19031
868.237	232.16027
868.41	210.90321
868.583	103.68988
868.755	121.02167
868.928	190.1336
869.101	403.11287
869.273	290.44647
869.446	243.55769
869.619	306.01925
869.791	220.36319
869.964	306.24563
870.136	296.90702
870.309	213.42581
870.481	245.64114
870.654	108.32185
870.826	227.09352
870.999	165.13962
871.171	257.19493
871.344	149.184
871.516	167.28668
871.689	143.85491
871.861	214.66476
872.033	172.30456
872.206	169.71303
872.378	246.18649
872.55	209.45214
872.723	138.19971
872.895	196.88308
873.067	290.17049
873.24	251.8055
873.412	176.16378
873.584	188.3445
873.756	207.9131
873.928	239.62798
874.101	231.01328
874.273	237.59336
874.445	90.54675
874.617	123.04726
874.789	219.70952
874.961	157.06487
875.133	255.447
875.305	191.0948
875.477	149.60798
875.649	114.48476
875.821	136.09465
875.993	332.71973
876.165	131.55508
876.337	223.02148
876.509	198.19753
876.681	208.35196
876.853	187.90884
877.025	197.39297
877.197	138.42348
877.369	127.2736
877.541	223.79202
877.712	59.15783
877.884	111.27607
878.056	194.41751
878.228	113.8098
878.4	243.5727
878.571	119.00612
878.743	74.54229
878.915	162.47135
879.086	100.2565
879.258	129.28062
879.43	113.20061
879.601	94.13088
879.773	94.72386
879.945	22.15579
880.116	36.08715
880.288	21.73557
880.459	25.16621
880.631	16.29867
880.802	21.66855
880.974	19.53133
881.145	12.71835
881.317	18.50649
881.488	13.16437
881.66	14.58394
881.831	13.3697
882.002	20.92859
882.174	13.5415
882.345	20.3349
882.517	7.24262
882.688	27.80747
882.859	19.76911
883.03	37.80764
883.202	38.34097
883.373	30.06175
883.544	30.43898
883.715	56.61546
883.887	49.79015
884.058	41.70493
884.229	58.2936
884.4	60.96101
884.571	67.5783
884.742	53.32493
884.914	61.13634
885.085	93.47244
885.256	132.08869
885.427	97.12525
885.598	119.10325
885.769	123.35844
885.94	104.5879
886.111	73.06198
886.282	131.92675
886.453	110.99205
886.624	84.15775
886.795	147.41719
886.966	121.58959
887.136	156.99093
887.307	133.0866
887.478	218.63088
887.649	183.65386
887.82	187.96859
887.991	150.69017
888.161	222.74217
888.332	197.73619
888.503	94.71422
888.674	273.23719
888.844	300.14221
889.015	238.33917
889.186	125.72397
889.356	267.61686
889.527	111.35604
889.698	394.04028
889.868	153.29104
890.039	229.94105
890.209	184.84067
890.38	226.67767
890.551	231.25473
890.721	319.80797
890.892	265.3511
891.062	181.07834
891.233	213.73774
891.403	198.05509
891.574	126.73004
891.744	166.10776
891.914	202.23862
892.085	163.78735
892.255	56.43864
892.425	271.49441
892.596	200.65161
892.766	208.16087
892.936	279.36516
893.107	218.70307
893.277	116.43006
893.447	87.17119
893.618	62.01378
893.788	127.22649
893.958	68.41643
894.128	69.97294
894.298	79.57139
894.468	98.90212
894.639	43.88405
894.809	29.0552
894.979	51.23747
895.149	62.2499
895.319	47.82435
895.489	78.6152
895.659	97.60075
895.829	67.20676
895.999	74.69442
896.169	56.91061
896.339	80.69423
896.509	167.61732
896.679	168.05287
896.849	178.49912
897.019	258.85999
897.189	187.09212
897.358	161.66983
897.528	261.68597
897.698	100.8904
897.868	213.15631
898.038	356.55674
898.208	410.48171
898.377	100.83906
898.547	350.31366
898.717	539.00335
898.886	215.16237
899.056	360.9534
899.226	487.94897
899.395	323.50175
899.565	515.76257
899.735	340.9035
899.904	556.5865
900.074	542.88243
900.244	172.65613
900.413	655.65049
900.583	196.08448
900.752	352.21507
900.922	549.93483
901.091	43.9661
901.261	443.36194
901.43	352.116
901.599	392.38358
901.769	808.82251
901.938	381.38357
902.108	316.57225
902.277	458.46285
902.446	154.18938
902.616	167.35218
902.785	182.40421
902.954	318.91366
903.124	206.52686
903.293	143.84052
903.462	77.66543
903.631	119.66504
903.801	87.95082
903.97	43.90146
904.139	74.20414
904.308	56.74892
904.477	46.94721
904.646	26.75983
904.816	49.30204
904.985	71.03429
905.154	116.89582
