Data from WindowProjectSample_Transmission__27__00027.txt Node

Date: Sat May 03 15:28:06 EDT 2025
User: jessi
Spectrometer: SR400872
Trigger mode: 0
Integration Time (sec): 5.000010E-1
Scans to average: 6
Electric dark correction enabled: true
Nonlinearity correction enabled: true
Boxcar width: 0
XAxis mode: Wavelengths
Number of Pixels in Spectrum: 3648
>>>>>Begin Spectral Data<<<<<
184.909	18222.35142
185.132	2639.89022
185.355	22920.91852
185.578	-7989.04356
185.801	57.3549
186.024	-1449.25422
186.247	874.03934
186.47	1940.63146
186.693	-227.47186
186.916	-1745.37519
187.139	-2691.41665
187.362	1557.85723
187.585	2701.58788
187.808	-3682.53122
188.031	903.7617
188.254	-1399.61777
188.476	-898.7217
188.699	2793.09056
188.922	-805.91825
189.145	-9816.74272
189.368	-338.69589
189.591	-1125.63997
189.813	-1780.66435
190.036	1241.42028
190.259	1866.01397
190.482	593.9455
190.705	10642.60468
190.927	-1033.84228
191.15	3627.34922
191.373	2422.49973
191.595	-2456.66701
191.818	2581.10928
192.041	-299.90243
192.263	2623.15552
192.486	1887.86872
192.709	-5693.01572
192.931	3093.58251
193.154	-6476.01071
193.377	195315.5696
193.599	1516.0359
193.822	1998.09763
194.044	-2381.06568
194.267	493.99794
194.489	-41.69807
194.712	1413.32876
194.934	3397.67139
195.157	-13441.94296
195.379	892.89855
195.602	2498.72393
195.824	2035.29404
196.047	2244.81403
196.269	3062.02513
196.492	3644.9897
196.714	2924.19815
196.936	1200.26664
197.159	1382.16484
197.381	-2215.93326
197.604	-1360.60758
197.826	6431.05608
198.048	3159.02688
198.271	4107.07048
198.493	2229.40468
198.715	-5970.27188
198.938	-646.56966
199.16	1768.96521
199.382	1467.83689
199.604	-683.57123
199.827	9029.19886
200.049	1101.45835
200.271	-3293.07255
200.493	-50825.42102
200.715	2212.86297
200.938	6832.90887
201.16	-7328.05429
201.382	-2799.31666
201.604	-1939.1804
201.826	6876.96207
202.048	872.41744
202.27	-17876.88995
202.492	4787.62065
202.715	-1107.14179
202.937	4806.52412
203.159	-2384.23464
203.381	890.44513
203.603	-3907.97939
203.825	-2787.70586
204.047	3459.09787
204.269	-2102.5821
204.491	2342.89127
204.713	1957.49197
204.935	15549.88447
205.156	1924.71487
205.378	-8305.11119
205.6	-4648.23587
205.822	9219.54165
206.044	-773.72516
206.266	3988.99215
206.488	1110.19778
206.71	29709.93947
206.932	2479.21066
207.153	-4805.91401
207.375	-1915.20038
207.597	8943.39074
207.819	4310.92649
208.041	2246.3112
208.262	-2387.06397
208.484	-1177.01982
208.706	-3086.49286
208.927	30435.64549
209.149	1027.56217
209.371	-6541.22736
209.593	1725.44169
209.814	5286.13708
210.036	-3218.05155
210.258	-4947.02795
210.479	-1326.93627
210.701	993.9142
210.922	7131.91392
211.144	-1190.54108
211.366	-6326.03903
211.587	-588.42907
211.809	9611.3665
212.03	-1349.00096
212.252	-1854.77245
212.473	800.78855
212.695	-2633.23923
212.916	3216.07227
213.138	3721.73989
213.359	-1936.36525
213.581	6888.77996
213.802	-1827.55033
214.024	17379.30079
214.245	-2814.19595
214.466	-316.00389
214.688	1568.60203
214.909	1119.91799
215.131	-100354.80875
215.352	1872.89532
215.573	2495.94845
215.795	3062.36013
216.016	4252.06532
216.237	-617.24348
216.459	7084.7321
216.68	98303.29968
216.901	-83476.61435
217.122	2114.58636
217.344	6006.87894
217.565	-59285.95317
217.786	1564.08348
218.007	1663.55748
218.228	-1183.63343
218.45	-1313.19777
218.671	-952.88965
218.892	1171.9135
219.113	-19035.2363
219.334	-421.15683
219.555	-5216.70323
219.776	1644.70888
219.997	3470.72243
220.219	1204.64912
220.44	2577.9038
220.661	-3013.82864
220.882	3531.84763
221.103	-1275.95228
221.324	1063.07703
221.545	2240.32869
221.766	-5805.53487
221.987	3959.48203
222.208	-1804.2507
222.429	3440.5427
222.65	-112.55449
222.87	-605.07908
223.091	8890.56291
223.312	2217.69302
223.533	6984.89121
223.754	1899.58511
223.975	1484.38201
224.196	-11770.30633
224.417	1099.55119
224.637	921.8607
224.858	-828.31495
225.079	6477.14013
225.3	611.63019
225.521	2050.74918
225.741	1528.40759
225.962	729.26463
226.183	313.89272
226.404	680.92019
226.624	584.99354
226.845	353.43711
227.066	423.07786
227.286	205.50031
227.507	94.56687
227.728	79.52442
227.948	127.71758
228.169	44.26989
228.389	48.92201
228.61	26.21802
228.831	35.27539
229.051	3.65286
229.272	22.82872
229.492	31.45199
229.713	9.32468
229.933	24.2918
230.154	20.77525
230.374	32.04851
230.595	23.94717
230.815	16.77211
231.036	23.51376
231.256	-3.59688
231.477	42.8955
231.697	23.96789
231.917	24.19064
232.138	37.99409
232.358	78.44325
232.579	63.59225
232.799	12.40411
233.019	65.33427
233.24	81.60811
233.46	28.83345
233.68	42.518
233.901	32.20532
234.121	18.74615
234.341	7.91025
234.561	0.74915
234.782	17.27293
235.002	46.78761
235.222	-0.75416
235.442	42.59151
235.662	23.64818
235.883	43.48415
236.103	38.25273
236.323	30.65415
236.543	20.99087
236.763	29.14378
236.983	30.18497
237.203	31.06405
237.423	44.25708
237.643	61.02824
237.864	51.93519
238.084	14.26471
238.304	20.91961
238.524	32.5383
238.744	31.5722
238.964	46.44236
239.184	44.42047
239.404	46.48929
239.624	22.9495
239.843	40.4774
240.063	22.40457
240.283	16.43059
240.503	18.36383
240.723	18.01302
240.943	9.05479
241.163	13.11118
241.383	9.74786
241.603	5.01997
241.822	6.20659
242.042	4.57585
242.262	5.75459
242.482	6.88229
242.702	8.35003
242.921	2.37563
243.141	6.21865
243.361	4.81769
243.581	7.52035
243.8	6.52312
244.02	4.64911
244.24	8.04543
244.459	7.79216
244.679	14.29107
244.899	10.14231
245.118	10.7782
245.338	8.74077
245.558	11.04636
245.777	6.35676
245.997	7.47665
246.216	7.8981
246.436	4.31768
246.655	3.33915
246.875	2.40389
247.094	4.98875
247.314	1.70056
247.533	2.76818
247.753	3.6355
247.972	2.95868
248.192	1.32258
248.411	1.80953
248.631	3.26462
248.85	3.80671
249.07	3.00872
249.289	5.06479
249.508	3.98065
249.728	6.35426
249.947	6.76886
250.166	6.99614
250.386	4.19584
250.605	5.60936
250.824	8.35734
251.044	6.76492
251.263	21.03588
251.482	10.52138
251.701	10.12286
251.921	0.46563
252.14	3.39819
252.359	3.65758
252.578	7.99564
252.798	2.92027
253.017	7.79031
253.236	4.05331
253.455	4.97633
253.674	10.21465
253.893	4.62072
254.112	6.99469
254.331	9.59853
254.551	7.98263
254.77	3.97609
254.989	12.02469
255.208	10.20922
255.427	12.03605
255.646	10.77136
255.865	18.31788
256.084	7.85729
256.303	8.78937
256.522	11.66888
256.741	2.38432
256.96	3.94841
257.179	7.33312
257.397	8.4643
257.616	4.88939
257.835	5.39243
258.054	12.04453
258.273	7.38012
258.492	8.93372
258.711	5.40881
258.93	2.12211
259.148	3.42131
259.367	3.51315
259.586	4.57507
259.805	2.09281
260.023	4.35772
260.242	3.25141
260.461	2.38469
260.68	1.32063
260.898	3.73159
261.117	1.34788
261.336	0.92799
261.554	3.39846
261.773	3.40355
261.992	0.74408
262.21	3.0677
262.429	4.04749
262.648	6.37833
262.866	7.27474
263.085	5.06287
263.303	4.09532
263.522	7.6364
263.74	7.90737
263.959	13.03401
264.178	6.97347
264.396	5.90965
264.615	4.30791
264.833	10.28236
265.051	8.63176
265.27	8.9239
265.488	9.52968
265.707	5.56002
265.925	9.07545
266.144	4.24714
266.362	5.75038
266.58	5.16875
266.799	4.3296
267.017	5.17602
267.235	4.53902
267.454	3.14172
267.672	1.75827
267.89	3.7867
268.109	4.14955
268.327	3.91675
268.545	1.00587
268.763	3.71895
268.982	1.71521
269.2	4.34431
269.418	2.7241
269.636	2.36622
269.854	3.73107
270.073	2.90184
270.291	1.79635
270.509	1.93904
270.727	3.93467
270.945	6.34002
271.163	6.07488
271.381	1.40351
271.599	2.68022
271.817	4.49911
272.036	1.62344
272.254	2.70332
272.472	2.05093
272.69	2.21519
272.908	2.28831
273.126	3.70028
273.344	4.71546
273.562	1.73712
273.779	2.28796
273.997	3.3234
274.215	3.7285
274.433	2.83764
274.651	4.16663
274.869	4.35008
275.087	3.09958
275.305	3.83681
275.523	2.05101
275.74	2.88039
275.958	4.80645
276.176	6.96504
276.394	2.23045
276.612	2.8289
276.829	2.89527
277.047	2.3498
277.265	2.83852
277.483	3.57199
277.7	3.73968
277.918	3.11205
278.136	5.51651
278.353	2.82176
278.571	1.5144
278.789	4.54261
279.006	0.79262
279.224	2.98705
279.442	4.72896
279.659	3.1873
279.877	2.57894
280.094	4.66392
280.312	0.76208
280.529	2.80149
280.747	0.82471
280.964	2.60651
281.182	5.52445
281.399	2.53244
281.617	3.42599
281.834	2.45785
282.052	2.08321
282.269	2.73995
282.487	2.30907
282.704	1.90259
282.921	2.15221
283.139	2.96163
283.356	3.87879
283.574	3.26845
283.791	1.81374
284.008	4.5257
284.226	2.55343
284.443	2.92138
284.66	3.7268
284.877	3.05472
285.095	2.11977
285.312	1.51136
285.529	1.03806
285.746	0.69701
285.964	1.89827
286.181	1.2901
286.398	1.9669
286.615	2.38388
286.832	2.41264
287.05	0.75029
287.267	1.59681
287.484	1.88509
287.701	2.6389
287.918	2.33979
288.135	2.48647
288.352	1.26714
288.569	1.43004
288.786	2.24115
289.003	1.61654
289.22	2.46566
289.437	1.74309
289.654	2.52073
289.871	2.75822
290.088	2.64345
290.305	1.94856
290.522	1.68082
290.739	2.14309
290.956	2.83787
291.173	3.44296
291.39	3.23075
291.607	2.30311
291.824	1.42557
292.04	1.23251
292.257	2.6473
292.474	3.23041
292.691	2.01048
292.908	1.01309
293.125	1.8583
293.341	1.02641
293.558	4.75187
293.775	1.87593
293.992	1.79846
294.208	0.81502
294.425	1.03143
294.642	1.72249
294.858	2.56892
295.075	0.71689
295.292	1.83401
295.508	2.34088
295.725	3.48719
295.942	1.7465
296.158	1.19819
296.375	1.89645
296.591	1.53872
296.808	1.62741
297.024	1.76278
297.241	1.98308
297.458	2.19838
297.674	0.13429
297.891	1.81053
298.107	1.33491
298.323	0.98023
298.54	2.61802
298.756	1.24816
298.973	0.65493
299.189	2.69435
299.406	1.14539
299.622	2.79274
299.838	2.60337
300.055	2.54472
300.271	0.72753
300.487	0.87284
300.704	1.32784
300.92	0.72448
301.136	3.58779
301.353	2.61654
301.569	1.90666
301.785	2.10554
302.001	2.55897
302.218	2.13692
302.434	2.1927
302.65	0.6853
302.866	1.47072
303.083	3.69607
303.299	3.44813
303.515	1.66984
303.731	1.92817
303.947	0.68388
304.163	1.11988
304.379	2.10347
304.595	2.27043
304.812	1.47287
305.028	1.04868
305.244	1.63061
305.46	2.64674
305.676	2.62981
305.892	3.16537
306.108	1.9693
306.324	1.4406
306.54	3.56735
306.756	2.36092
306.972	2.50218
307.187	1.82468
307.403	3.34157
307.619	1.27313
307.835	2.79298
308.051	3.15835
308.267	0.62887
308.483	2.58011
308.699	2.40798
308.914	1.95335
309.13	1.75352
309.346	0.56243
309.562	1.01633
309.778	0.58479
309.993	2.32938
310.209	1.82281
310.425	0.75433
310.641	1.55775
310.856	0.8459
311.072	0.99327
311.288	1.75854
311.503	1.89037
311.719	0.33126
311.935	0.34335
312.15	2.15721
312.366	1.77506
312.581	2.21977
312.797	1.89792
313.013	2.41277
313.228	1.57743
313.444	1.98313
313.659	1.18912
313.875	2.15044
314.09	1.79658
314.306	2.92061
314.521	2.63405
314.737	2.37768
314.952	2.08432
315.168	1.64761
315.383	2.5679
315.599	1.57598
315.814	1.55543
316.029	2.57285
316.245	0.61985
316.46	0.69548
316.675	2.94583
316.891	3.69532
317.106	4.44505
317.321	2.57807
317.537	2.37356
317.752	2.56353
317.967	2.53285
318.183	1.27115
318.398	1.71137
318.613	2.6803
318.828	3.24334
319.043	2.56048
319.259	1.59489
319.474	2.27344
319.689	2.67962
319.904	0.42606
320.119	2.53468
320.334	2.20138
320.549	2.10864
320.765	3.03614
320.98	2.44207
321.195	2.8697
321.41	1.71038
321.625	2.40879
321.84	3.66197
322.055	3.81695
322.27	1.2315
322.485	0.98512
322.7	2.15999
322.915	3.04863
323.13	1.33191
323.345	3.48451
323.56	2.78025
323.775	2.6629
323.989	2.51054
324.204	2.02763
324.419	2.67263
324.634	0.98202
324.849	1.79419
325.064	4.10381
325.279	2.82692
325.493	2.57379
325.708	3.01584
325.923	1.29814
326.138	1.11146
326.352	3.40261
326.567	2.75514
326.782	1.65009
326.997	1.34579
327.211	2.33489
327.426	2.39732
327.641	1.63628
327.855	0.70874
328.07	2.5771
328.285	3.42014
328.499	1.57844
328.714	2.57785
328.928	2.82809
329.143	2.26445
329.358	2.90072
329.572	2.9129
329.787	3.30138
330.001	4.23809
330.216	0.91795
330.43	3.51775
330.645	3.33837
330.859	2.73612
331.074	1.54581
331.288	2.43805
331.503	3.42991
331.717	1.08256
331.931	2.03213
332.146	2.12056
332.36	3.60879
332.575	2.54238
332.789	2.16783
333.003	1.94185
333.218	2.38245
333.432	1.68175
333.646	2.60895
333.86	3.32409
334.075	3.50876
334.289	1.73383
334.503	1.1258
334.717	2.57456
334.932	2.64897
335.146	3.13733
335.36	1.7672
335.574	2.49068
335.788	2.47897
336.003	3.02114
336.217	2.71924
336.431	2.60424
336.645	1.61182
336.859	1.16563
337.073	1.85033
337.287	2.30869
337.501	1.34509
337.715	2.33811
337.929	2.75456
338.143	1.1957
338.357	2.05885
338.571	1.288
338.785	2.50795
338.999	1.63855
339.213	1.71755
339.427	0.94721
339.641	2.89967
339.855	1.87138
340.069	1.66771
340.283	3.09226
340.497	3.63498
340.711	2.62048
340.924	1.6119
341.138	1.19663
341.352	0.81663
341.566	2.37118
341.78	0.80266
341.993	1.55536
342.207	1.18412
342.421	2.17537
342.635	2.05207
342.848	1.6318
343.062	0.22995
343.276	1.48959
343.49	3.96857
343.703	1.57067
343.917	2.64835
344.131	2.83084
344.344	1.36025
344.558	1.4271
344.771	1.2709
344.985	3.22747
345.199	3.32551
345.412	2.1306
345.626	2.28562
345.839	0.59497
346.053	1.12271
346.266	1.02807
346.48	2.74597
346.693	2.12688
346.907	2.24398
347.12	1.48462
347.334	2.34032
347.547	2.32209
347.76	1.75229
347.974	2.92906
348.187	2.35469
348.401	1.71157
348.614	1.42668
348.827	1.73208
349.041	2.44991
349.254	0.7984
349.467	1.75993
349.681	0.74762
349.894	1.45959
350.107	3.05623
350.32	3.28728
350.534	0.56934
350.747	1.56471
350.96	1.11724
351.173	1.29856
351.386	1.73336
351.6	1.51485
351.813	1.30779
352.026	2.0993
352.239	0.88959
352.452	1.45159
352.665	2.34848
352.878	1.68478
353.092	3.67413
353.305	2.38944
353.518	2.10079
353.731	1.16683
353.944	3.01576
354.157	1.31981
354.37	1.25059
354.583	1.05051
354.796	0.63232
355.009	2.86481
355.222	1.80612
355.435	1.93335
355.647	2.72022
355.86	1.16616
356.073	1.77497
356.286	1.4284
356.499	2.55463
356.712	2.02587
356.925	2.10767
357.138	2.57587
357.35	1.03278
357.563	1.51715
357.776	1.9999
357.989	1.6681
358.201	2.20489
358.414	1.81225
358.627	2.72392
358.84	1.5929
359.052	0.96752
359.265	0.94123
359.478	2.67572
359.69	-0.26728
359.903	2.27747
360.116	2.38979
360.328	0.54061
360.541	2.47565
360.753	1.07153
360.966	1.37072
361.179	1.49025
361.391	1.3553
361.604	0.91992
361.816	1.36723
362.029	1.24256
362.241	1.08291
362.454	1.40189
362.666	1.01518
362.879	1.90459
363.091	1.5211
363.304	1.17913
363.516	1.60637
363.728	0.7436
363.941	2.05564
364.153	1.59715
364.366	0.33012
364.578	0.92136
364.79	2.0668
365.003	1.86559
365.215	1.45749
365.427	2.31247
365.639	2.80218
365.852	1.9574
366.064	3.3278
366.276	1.51865
366.488	2.12002
366.701	1.47469
366.913	1.55433
367.125	1.73625
367.337	1.40347
367.549	1.39608
367.762	1.84846
367.974	1.89845
368.186	1.45481
368.398	2.70481
368.61	2.2139
368.822	2.31579
369.034	1.88169
369.246	2.55483
369.458	3.89309
369.67	1.20759
369.882	3.29214
370.094	0.43734
370.306	3.02219
370.518	1.63581
370.73	1.46753
370.942	1.65165
371.154	1.92822
371.366	1.64828
371.578	2.27369
371.79	1.80523
372.002	3.03802
372.214	3.73093
372.425	2.12196
372.637	3.3152
372.849	2.33119
373.061	0.50029
373.273	2.60553
373.484	2.69568
373.696	2.95505
373.908	0.48669
374.12	2.88585
374.331	2.80502
374.543	1.76999
374.755	1.50756
374.967	2.42324
375.178	3.20441
375.39	2.23988
375.602	2.50224
375.813	1.43105
376.025	1.63982
376.236	2.52882
376.448	2.67041
376.66	2.41557
376.871	2.49668
377.083	3.2187
377.294	3.93003
377.506	2.23833
377.717	3.63041
377.929	2.94731
378.14	2.45467
378.352	3.24409
378.563	3.47265
378.775	3.96808
378.986	2.20135
379.197	2.83097
379.409	2.39056
379.62	3.41611
379.832	3.15931
380.043	3.08355
380.254	3.29975
380.466	2.18079
380.677	5.19344
380.888	4.7067
381.1	5.17607
381.311	5.25274
381.522	3.58795
381.733	5.35995
381.945	3.15347
382.156	3.05656
382.367	3.21993
382.578	5.78927
382.789	5.74085
383.001	2.89341
383.212	4.78794
383.423	5.00127
383.634	4.3628
383.845	4.36992
384.056	3.37716
384.267	3.79611
384.478	3.77745
384.69	3.08968
384.901	4.44764
385.112	4.31038
385.323	5.34978
385.534	4.49
385.745	4.63542
385.956	4.38523
386.167	3.4434
386.378	4.66365
386.588	3.86624
386.799	3.67557
387.01	3.42252
387.221	5.08109
387.432	4.57138
387.643	5.87562
387.854	4.38757
388.065	4.39246
388.275	4.55433
388.486	4.20764
388.697	4.79736
388.908	4.4648
389.119	5.77944
389.329	6.16757
389.54	5.0571
389.751	5.28424
389.962	6.08018
390.172	5.19252
390.383	5.12925
390.594	4.78144
390.804	4.852
391.015	4.98891
391.226	5.80715
391.436	6.05127
391.647	5.95539
391.858	6.0585
392.068	4.73601
392.279	5.10821
392.489	6.18485
392.7	6.47216
392.91	5.54318
393.121	5.52062
393.331	6.45277
393.542	7.02702
393.752	6.68031
393.963	6.77744
394.173	6.64994
394.384	7.10593
394.594	6.47275
394.804	5.8287
395.015	6.45479
395.225	7.10569
395.436	5.98938
395.646	7.05156
395.856	6.5221
396.067	5.9428
396.277	7.31263
396.487	7.20698
396.697	7.26893
396.908	7.62037
397.118	7.45254
397.328	7.01963
397.538	7.80373
397.749	6.87151
397.959	7.94044
398.169	7.62191
398.379	6.47852
398.589	7.43449
398.8	7.85837
399.01	7.62668
399.22	7.23538
399.43	9.21017
399.64	7.75005
399.85	8.04354
400.06	8.02317
400.27	7.32421
400.48	7.78248
400.69	8.70303
400.9	7.73098
401.11	7.16136
401.32	8.53323
401.53	7.81021
401.74	9.17869
401.95	8.56407
402.16	8.07439
402.37	8.68358
402.58	8.16014
402.79	8.66829
403	8.84152
403.209	8.08494
403.419	9.4402
403.629	8.14664
403.839	9.5891
404.049	9.31086
404.258	8.66083
404.468	8.73597
404.678	9.64435
404.888	10.05373
405.097	9.13046
405.307	9.02843
405.517	9.61177
405.727	9.82389
405.936	8.98144
406.146	9.51495
406.356	10.41116
406.565	9.23729
406.775	9.22356
406.984	9.20745
407.194	10.96161
407.404	9.72529
407.613	9.83738
407.823	10.08951
408.032	10.47184
408.242	10.24281
408.451	9.38517
408.661	9.51957
408.87	10.57112
409.08	9.12633
409.289	10.26888
409.499	10.23302
409.708	10.07025
409.918	8.64011
410.127	10.246
410.336	11.18533
410.546	10.90696
410.755	9.86321
410.964	9.9322
411.174	9.4244
411.383	10.5313
411.592	10.39679
411.802	9.61401
412.011	10.78678
412.22	10.30066
412.429	11.36733
412.639	11.35467
412.848	10.95824
413.057	11.54487
413.266	11.00798
413.475	10.46595
413.685	11.05936
413.894	11.15109
414.103	11.2966
414.312	11.1318
414.521	10.34638
414.73	10.87529
414.939	11.99415
415.148	11.12417
415.357	11.1372
415.566	11.03846
415.776	10.79303
415.985	10.82359
416.194	11.73066
416.403	12.47753
416.611	10.49514
416.82	10.94785
417.029	11.48908
417.238	11.14961
417.447	11.17525
417.656	11.52928
417.865	11.48933
418.074	11.93743
418.283	12.71247
418.492	14.04989
418.7	13.85001
418.909	15.68907
419.118	14.27517
419.327	15.11531
419.536	14.89934
419.744	15.45384
419.953	16.92967
420.162	17.33647
420.371	16.75182
420.579	17.84875
420.788	18.54403
420.997	18.92439
421.205	19.14365
421.414	18.96823
421.623	19.52225
421.831	18.53781
422.04	19.10378
422.249	18.05965
422.457	18.08938
422.666	17.05899
422.874	18.2665
423.083	18.55231
423.291	18.59385
423.5	18.63186
423.708	19.21787
423.917	19.94994
424.125	19.20038
424.334	18.92568
424.542	21.03282
424.751	20.1619
424.959	19.71406
425.167	19.94639
425.376	19.57419
425.584	17.71709
425.793	17.44214
426.001	16.22994
426.209	16.14182
426.418	14.50678
426.626	13.67877
426.834	13.27608
427.042	13.19735
427.251	12.60743
427.459	13.24906
427.667	12.90519
427.875	12.07822
428.084	12.60466
428.292	13.48419
428.5	13.27251
428.708	12.13106
428.916	12.3429
429.124	12.76694
429.333	12.70991
429.541	12.92269
429.749	13.13969
429.957	12.72874
430.165	14.49295
430.373	11.97685
430.581	12.87491
430.789	13.99798
430.997	12.92537
431.205	12.48398
431.413	13.33979
431.621	12.95522
431.829	13.64919
432.037	12.92924
432.245	13.11454
432.453	13.69504
432.661	13.16003
432.869	14.77162
433.076	13.62009
433.284	14.33423
433.492	15.17247
433.7	15.36437
433.908	14.5182
434.116	14.76402
434.323	14.31905
434.531	14.26794
434.739	13.93661
434.947	14.01822
435.154	14.03105
435.362	13.59549
435.57	13.34671
435.778	13.10474
435.985	13.62628
436.193	13.17732
436.401	14.21796
436.608	13.71078
436.816	13.35942
437.023	14.40357
437.231	14.7664
437.439	13.77933
437.646	14.08578
437.854	13.9414
438.061	14.21531
438.269	13.93105
438.476	14.30887
438.684	14.3881
438.891	14.74583
439.099	14.76158
439.306	14.73543
439.514	14.91785
439.721	16.92832
439.929	16.45243
440.136	17.82188
440.343	17.88032
440.551	17.748
440.758	19.57029
440.965	18.00422
441.173	17.59105
441.38	17.38558
441.587	16.95451
441.795	16.66994
442.002	15.76559
442.209	15.50386
442.416	15.13999
442.624	14.84117
442.831	14.39789
443.038	13.78874
443.245	13.73325
443.452	14.06372
443.66	14.65787
443.867	13.95299
444.074	14.02641
444.281	14.39188
444.488	14.88014
444.695	15.49022
444.902	15.96738
445.109	17.7585
445.316	17.71999
445.523	18.54286
445.73	18.72003
445.937	20.03528
446.144	20.69352
446.351	21.43136
446.558	19.98018
446.765	22.48998
446.972	21.15085
447.179	20.93146
447.386	21.18211
447.593	19.08802
447.8	20.11092
448.007	18.12144
448.214	17.02387
448.42	16.38152
448.627	16.668
448.834	15.63809
449.041	15.00166
449.248	14.3521
449.454	14.84924
449.661	15.33416
449.868	14.19816
450.075	14.0312
450.281	13.48867
450.488	13.83046
450.695	13.95642
450.901	13.97264
451.108	14.07361
451.315	15.08536
451.521	14.1912
451.728	15.22003
451.935	14.05348
452.141	14.48779
452.348	14.61783
452.554	14.48955
452.761	14.30792
452.967	15.59396
453.174	14.72921
453.38	14.64364
453.587	14.05672
453.793	14.76093
454	14.86546
454.206	15.90775
454.413	15.31403
454.619	15.11775
454.825	14.32343
455.032	14.93853
455.238	15.32369
455.445	13.92744
455.651	14.8838
455.857	13.66341
456.064	14.57035
456.27	14.66838
456.476	14.29101
456.682	13.95471
456.889	14.71846
457.095	14.92027
457.301	15.96019
457.507	14.84452
457.714	14.66438
457.92	14.91484
458.126	14.28306
458.332	14.8371
458.538	14.8174
458.744	15.83905
458.951	16.92503
459.157	19.69093
459.363	19.49135
459.569	20.05805
459.775	20.62122
459.981	20.74032
460.187	21.26771
460.393	21.04405
460.599	20.99068
460.805	19.55565
461.011	17.99147
461.217	17.43824
461.423	16.17109
461.629	15.16642
461.835	15.4672
462.041	15.20581
462.247	16.10677
462.453	15.07677
462.658	15.02279
462.864	15.58498
463.07	15.48811
463.276	15.17031
463.482	14.93948
463.688	16.15175
463.893	14.68866
464.099	15.0421
464.305	16.31137
464.511	15.02444
464.716	15.02251
464.922	15.68251
465.128	14.64793
465.333	16.26246
465.539	15.78906
465.745	15.65378
465.95	15.44272
466.156	17.47135
466.362	16.40389
466.567	15.30864
466.773	15.22176
466.978	16.48563
467.184	15.02074
467.389	14.55369
467.595	15.9018
467.8	15.26444
468.006	16.36242
468.211	16.40949
468.417	15.02402
468.622	15.61641
468.828	15.98003
469.033	15.81615
469.239	17.4982
469.444	15.21126
469.649	16.18124
469.855	15.59083
470.06	15.76615
470.266	14.96106
470.471	16.17746
470.676	15.85236
470.881	14.47836
471.087	16.91799
471.292	16.95002
471.497	14.84477
471.703	15.66169
471.908	15.20601
472.113	15.94885
472.318	16.3447
472.523	15.25549
472.729	16.16122
472.934	15.98721
473.139	15.70155
473.344	16.29869
473.549	16.95076
473.754	15.41722
473.959	17.58474
474.164	15.59752
474.369	15.66418
474.575	16.25406
474.78	15.99314
474.985	15.49578
475.19	14.53225
475.395	15.40957
475.6	15.78484
475.804	17.00591
476.009	16.17337
476.214	15.78868
476.419	15.69431
476.624	15.18316
476.829	15.56896
477.034	16.49665
477.239	15.93772
477.444	16.50319
477.648	16.64126
477.853	16.62143
478.058	16.10421
478.263	15.86114
478.468	15.71076
478.672	15.88676
478.877	17.18277
479.082	17.30538
479.287	16.7605
479.491	16.44284
479.696	15.90816
479.901	16.71619
480.105	16.65422
480.31	15.79438
480.515	16.47517
480.719	17.71842
480.924	16.15332
481.128	16.36811
481.333	17.73929
481.538	18.12468
481.742	19.16909
481.947	21.04572
482.151	22.98372
482.356	24.96191
482.56	29.18954
482.765	32.97919
482.969	39.20369
483.174	44.629
483.378	50.85049
483.582	53.36776
483.787	56.35045
483.991	56.81082
484.196	56.78912
484.4	55.61413
484.604	54.56695
484.809	50.07223
485.013	46.55531
485.217	41.77598
485.422	36.92249
485.626	33.48036
485.83	31.82439
486.034	30.98504
486.239	31.96896
486.443	33.33046
486.647	34.59521
486.851	37.06806
487.055	39.80877
487.26	40.37557
487.464	42.12527
487.668	41.58242
487.872	42.59134
488.076	42.06236
488.28	40.408
488.484	37.56622
488.688	36.40869
488.892	33.6874
489.096	31.18165
489.3	28.92532
489.504	26.74257
489.708	25.35086
489.912	24.90519
490.116	24.5151
490.32	24.55076
490.524	26.92894
490.728	29.02246
490.932	30.91284
491.136	33.49995
491.34	35.12199
491.544	35.91486
491.748	35.86486
491.951	35.56601
492.155	34.51204
492.359	33.24585
492.563	30.1007
492.767	28.00931
492.97	24.78965
493.174	22.04895
493.378	20.00149
493.582	17.80275
493.785	17.17841
493.989	17.02601
494.193	16.24776
494.396	15.54963
494.6	16.03907
494.804	15.84839
495.007	16.67461
495.211	16.82628
495.414	16.69077
495.618	17.14519
495.822	17.88931
496.025	17.27953
496.229	17.88455
496.432	17.77882
496.636	18.28393
496.839	18.31287
497.043	19.42097
497.246	18.55598
497.45	18.32046
497.653	18.62744
497.856	18.27967
498.06	17.68631
498.263	17.36181
498.467	17.2901
498.67	17.91743
498.873	17.55338
499.077	17.38342
499.28	17.44583
499.483	17.79297
499.686	17.94191
499.89	17.41213
500.093	18.09686
500.296	17.05119
500.499	18.59151
500.703	17.39538
500.906	17.65003
501.109	18.60878
501.312	17.45011
501.515	17.52197
501.719	17.64557
501.922	18.19417
502.125	17.65218
502.328	17.34751
502.531	16.86018
502.734	17.66432
502.937	16.60975
503.14	17.71822
503.343	17.28445
503.546	17.47752
503.749	17.25903
503.952	18.21105
504.155	17.30216
504.358	18.06115
504.561	18.03485
504.764	17.02187
504.967	17.85042
505.17	17.55892
505.373	18.81094
505.576	17.649
505.778	18.16091
505.981	17.08857
506.184	18.46708
506.387	16.68306
506.59	18.82176
506.793	18.51098
506.995	17.97408
507.198	16.53665
507.401	17.91219
507.604	18.10284
507.806	17.25547
508.009	17.33847
508.212	18.52075
508.414	17.32088
508.617	17.57136
508.82	17.8828
509.022	18.79799
509.225	18.13906
509.427	16.98664
509.63	18.6919
509.833	18.0368
510.035	17.50853
510.238	17.0967
510.44	18.58221
510.643	16.82914
510.845	19.02684
511.048	18.2441
511.25	17.57713
511.453	17.85066
511.655	18.30549
511.858	17.92927
512.06	18.81543
512.262	18.24432
512.465	18.73103
512.667	18.00631
512.869	17.52653
513.072	18.41747
513.274	18.70183
513.476	18.55066
513.679	18.65039
513.881	17.7473
514.083	19.09266
514.286	17.73708
514.488	17.71322
514.69	17.69315
514.892	17.43703
515.094	18.52081
515.297	17.88829
515.499	18.25789
515.701	17.73688
515.903	19.56286
516.105	19.24828
516.307	18.53905
516.509	17.02906
516.711	17.50369
516.913	18.21996
517.116	18.20603
517.318	17.95248
517.52	18.81217
517.722	18.82425
517.924	18.51733
518.126	20.08465
518.328	19.83118
518.529	20.95544
518.731	21.56671
518.933	19.84484
519.135	19.93556
519.337	20.38529
519.539	19.54304
519.741	17.68332
519.943	18.50232
520.145	18.23252
520.346	19.08643
520.548	18.24179
520.75	18.59574
520.952	18.1613
521.153	18.61833
521.355	18.69606
521.557	18.06889
521.759	18.63347
521.96	18.43074
522.162	17.87741
522.364	19.41535
522.565	18.0854
522.767	19.02488
522.969	19.08844
523.17	18.77157
523.372	18.31488
523.573	18.31264
523.775	18.40012
523.977	17.84353
524.178	19.70851
524.38	18.12269
524.581	18.85417
524.783	18.38627
524.984	20.03281
525.186	20.44283
525.387	21.47547
525.589	21.83052
525.79	21.95311
525.991	22.24707
526.193	22.81271
526.394	22.41103
526.596	23.45562
526.797	24.14199
526.998	24.02509
527.2	25.64924
527.401	29.49835
527.602	32.4268
527.803	37.39614
528.005	40.82609
528.206	43.74103
528.407	45.78578
528.608	46.40023
528.81	46.60499
529.011	45.2134
529.212	45.82095
529.413	42.50664
529.614	39.40215
529.815	36.47831
530.017	32.9504
530.218	28.86276
530.419	25.83306
530.62	24.77944
530.821	23.56837
531.022	21.7214
531.223	22.65939
531.424	22.11228
531.625	22.79565
531.826	22.62771
532.027	24.04348
532.228	26.64627
532.429	27.73632
532.63	29.03936
532.831	30.98929
533.032	31.17489
533.233	32.25064
533.433	31.71244
533.634	32.09325
533.835	30.30408
534.036	29.0499
534.237	27.18844
534.438	25.52275
534.638	22.57801
534.839	21.49658
535.04	20.67792
535.241	19.72529
535.441	21.2164
535.642	20.96155
535.843	20.79433
536.043	21.42943
536.244	21.94542
536.445	22.62327
536.645	23.34322
536.846	23.18282
537.047	23.06378
537.247	21.37649
537.448	20.86917
537.648	20.14589
537.849	19.05135
538.049	19.1307
538.25	19.17122
538.451	19.57298
538.651	18.56623
538.851	19.37594
539.052	19.94369
539.252	19.66464
539.453	18.94672
539.653	19.3627
539.854	19.63823
540.054	21.56059
540.254	24.67884
540.455	27.49644
540.655	29.10124
540.855	32.39774
541.056	34.23893
541.256	34.32911
541.456	35.63733
541.657	34.98536
541.857	35.22937
542.057	33.07677
542.257	31.46019
542.458	30.95036
542.658	28.80814
542.858	25.91601
543.058	25.28636
543.258	23.81594
543.458	21.61993
543.659	20.7022
543.859	21.17527
544.059	20.72277
544.259	19.47276
544.459	20.08219
544.659	19.16287
544.859	19.68853
545.059	18.90478
545.259	19.89387
545.459	19.51665
545.659	19.99192
545.859	19.61521
546.059	19.61919
546.259	19.14512
546.459	18.83119
546.659	19.01014
546.859	20.24263
547.059	19.8627
547.258	19.80607
547.458	20.08349
547.658	19.10074
547.858	18.83249
548.058	19.68911
548.258	19.11155
548.457	18.69667
548.657	21.021
548.857	19.16015
549.057	19.79637
549.256	19.98234
549.456	19.01461
549.656	17.7408
549.855	20.74783
550.055	19.17274
550.255	20.94795
550.454	19.67623
550.654	19.85951
550.853	20.19607
551.053	19.93207
551.253	19.76884
551.452	19.58119
551.652	18.82616
551.851	18.45498
552.051	19.25435
552.25	18.99672
552.45	18.98318
552.649	19.36762
552.849	19.20973
553.048	19.35555
553.248	20.17248
553.447	18.78815
553.646	20.00303
553.846	21.02181
554.045	20.18534
554.244	18.39981
554.444	20.68782
554.643	18.82937
554.842	20.53183
555.042	21.07629
555.241	18.84314
555.44	18.5959
555.64	20.16157
555.839	20.91869
556.038	19.72127
556.237	19.07279
556.436	19.49979
556.636	20.43317
556.835	19.01512
557.034	21.02873
557.233	19.88916
557.432	18.31638
557.631	20.461
557.83	19.60702
558.029	19.19044
558.228	18.88421
558.427	18.6537
558.626	20.1308
558.825	18.66877
559.024	19.4428
559.223	21.1651
559.422	19.61563
559.621	19.9408
559.82	17.53523
560.019	19.48259
560.218	19.32354
560.417	17.28474
560.616	19.27417
560.815	22.11113
561.014	18.50467
561.212	21.21358
561.411	19.56347
561.61	18.24801
561.809	19.45422
562.008	20.80354
562.206	19.60367
562.405	20.51134
562.604	19.41791
562.803	20.03916
563.001	19.33011
563.2	18.47241
563.399	20.15208
563.597	18.58572
563.796	19.29284
563.995	18.51456
564.193	20.02709
564.392	19.28241
564.59	21.55675
564.789	18.08447
564.988	19.33175
565.186	19.95119
565.385	19.64138
565.583	19.58628
565.782	19.84953
565.98	19.65368
566.179	19.62403
566.377	19.18773
566.575	19.36495
566.774	20.94871
566.972	20.47424
567.171	21.69428
567.369	20.73959
567.567	19.84191
567.766	20.0275
567.964	18.0847
568.162	20.20035
568.361	20.46158
568.559	19.80123
568.757	20.212
568.956	19.94615
569.154	19.74113
569.352	20.4513
569.55	19.66286
569.748	19.89401
569.947	19.13699
570.145	19.10713
570.343	19.12909
570.541	20.79991
570.739	18.95728
570.937	19.92499
571.135	20.40323
571.333	21.68256
571.532	21.33056
571.73	20.40238
571.928	20.83094
572.126	20.68592
572.324	19.75802
572.522	21.28136
572.72	22.52755
572.918	20.23143
573.116	20.38009
573.313	20.00518
573.511	19.84442
573.709	19.14497
573.907	20.75996
574.105	19.85848
574.303	18.72501
574.501	18.75706
574.699	20.69404
574.896	20.6083
575.094	20.39757
575.292	18.90473
575.49	20.5767
575.688	19.72792
575.885	21.07959
576.083	21.77701
576.281	20.62248
576.478	19.21107
576.676	20.60904
576.874	18.72335
577.071	19.65066
577.269	22.24688
577.467	20.18277
577.664	19.58682
577.862	21.3243
578.059	19.21212
578.257	20.83219
578.455	19.80653
578.652	20.16387
578.85	17.95467
579.047	19.94155
579.245	20.00646
579.442	19.7508
579.64	19.86419
579.837	18.03954
580.034	22.74457
580.232	19.59718
580.429	18.60913
580.627	20.2117
580.824	21.37917
581.021	20.51079
581.219	19.5207
581.416	18.95886
581.613	21.37239
581.811	21.24708
582.008	18.93622
582.205	20.8854
582.402	20.01824
582.6	21.19917
582.797	19.77415
582.994	20.08721
583.191	21.12684
583.388	19.94071
583.586	20.58644
583.783	20.88211
583.98	19.62267
584.177	20.18878
584.374	17.08612
584.571	19.81091
584.768	19.73404
584.965	19.25281
585.162	20.57506
585.359	21.93176
585.556	19.9399
585.753	20.2855
585.95	18.15859
586.147	19.51202
586.344	20.90047
586.541	19.98659
586.738	18.24492
586.935	19.70842
587.132	19.24797
587.329	20.95885
587.526	20.04624
587.722	25.33325
587.919	18.5353
588.116	20.97425
588.313	21.59468
588.51	22.34705
588.706	19.64414
588.903	20.91632
589.1	20.9984
589.297	22.36874
589.493	20.22856
589.69	21.17172
589.887	19.42285
590.083	19.12114
590.28	19.60714
590.477	20.93557
590.673	20.83742
590.87	21.59574
591.067	19.94465
591.263	20.61568
591.46	20.50633
591.656	19.24451
591.853	21.86256
592.049	19.21981
592.246	19.681
592.442	21.09709
592.639	21.80863
592.835	19.03421
593.032	20.67539
593.228	18.43775
593.425	18.45924
593.621	18.04907
593.817	20.50489
594.014	19.52406
594.21	20.10947
594.406	21.34242
594.603	21.01771
594.799	19.40028
594.995	17.88613
595.192	21.26336
595.388	19.74924
595.584	19.85112
595.78	18.97815
595.977	22.7796
596.173	22.37083
596.369	20.0958
596.565	19.58748
596.761	19.21239
596.957	21.73721
597.154	19.83983
597.35	20.07673
597.546	19.81374
597.742	21.46519
597.938	20.70507
598.134	19.70867
598.33	20.47813
598.526	21.81287
598.722	20.63545
598.918	22.19921
599.114	20.56187
599.31	19.0096
599.506	20.11628
599.702	19.04586
599.898	20.40153
600.094	20.79682
600.29	20.92258
600.485	21.26846
600.681	19.12542
600.877	22.51361
601.073	20.19441
601.269	22.44836
601.465	21.87097
601.66	19.43017
601.856	17.90625
602.052	22.52791
602.248	20.25467
602.443	18.69314
602.639	19.14991
602.835	19.41977
603.03	19.5964
603.226	21.50899
603.422	19.44793
603.617	20.38338
603.813	20.21032
604.009	20.40195
604.204	21.81945
604.4	19.62828
604.595	21.90471
604.791	19.84954
604.986	20.95457
605.182	20.11216
605.377	20.28027
605.573	20.23105
605.768	20.91984
605.964	21.09271
606.159	21.14928
606.355	21.90341
606.55	19.86716
606.746	22.05109
606.941	19.958
607.136	22.84623
607.332	24.4147
607.527	19.12019
607.722	20.97236
607.918	19.93059
608.113	19.78537
608.308	21.69752
608.503	21.42563
608.699	21.37982
608.894	21.51903
609.089	19.77126
609.284	21.04981
609.479	20.34392
609.675	21.56098
609.87	20.87019
610.065	21.79957
610.26	21.95518
610.455	21.3593
610.65	20.89195
610.845	20.87036
611.04	22.20921
611.235	20.22447
611.43	20.31163
611.625	18.81908
611.82	22.52265
612.015	19.93902
612.21	22.44206
612.405	18.5568
612.6	22.42611
612.795	22.59292
612.99	21.19921
613.185	19.13057
613.38	19.60882
613.575	20.75412
613.77	24.51191
613.965	18.93963
614.159	19.54651
614.354	22.70361
614.549	21.64454
614.744	21.60301
614.938	19.18915
615.133	18.29016
615.328	22.78443
615.523	22.0429
615.717	24.25572
615.912	19.23505
616.107	20.87961
616.301	20.24619
616.496	20.59829
616.691	23.01833
616.885	21.87559
617.08	25.15447
617.274	21.66135
617.469	23.77188
617.664	21.51562
617.858	20.16474
618.053	21.81156
618.247	20.363
618.442	17.27754
618.636	22.81244
618.831	19.91908
619.025	19.80167
619.219	24.86461
619.414	16.57833
619.608	20.4349
619.803	19.87535
619.997	24.34482
620.191	23.03176
620.386	21.05471
620.58	20.82682
620.774	18.04703
620.969	18.64403
621.163	20.77356
621.357	19.41181
621.551	20.04237
621.746	20.8863
621.94	19.95522
622.134	25.45818
622.328	24.92575
622.522	18.19111
622.716	22.02872
622.911	23.07007
623.105	22.7094
623.299	21.65247
623.493	26.14936
623.687	19.82429
623.881	20.9927
624.075	21.33475
624.269	23.15712
624.463	18.04239
624.657	18.21507
624.851	21.68609
625.045	21.88529
625.239	22.85541
625.433	20.48106
625.627	23.42473
625.821	20.34355
626.015	20.11839
626.209	21.58999
626.403	19.18555
626.596	22.4372
626.79	22.36432
626.984	19.54389
627.178	22.02238
627.372	22.32925
627.565	22.52439
627.759	19.04828
627.953	19.90734
628.147	21.56608
628.34	22.17759
628.534	24.20581
628.728	20.77757
628.921	22.74999
629.115	21.91998
629.309	22.79421
629.502	22.53914
629.696	21.1204
629.89	21.18555
630.083	21.65952
630.277	22.05795
630.47	23.65856
630.664	20.21757
630.857	18.48329
631.051	21.89259
631.244	23.08879
631.438	22.10239
631.631	19.58173
631.825	23.74442
632.018	22.18426
632.212	24.06423
632.405	23.59919
632.598	19.9028
632.792	21.51546
632.985	17.62748
633.178	20.95843
633.372	21.3301
633.565	21.35606
633.758	23.71107
633.952	20.08398
634.145	19.62766
634.338	20.80022
634.531	20.29321
634.724	20.59697
634.918	20.99734
635.111	20.83518
635.304	20.85045
635.497	25.53233
635.69	21.66723
635.883	24.01206
636.077	19.34947
636.27	22.18364
636.463	21.27011
636.656	21.63885
636.849	20.41249
637.042	22.59804
637.235	24.00118
637.428	23.05086
637.621	23.15442
637.814	24.38924
638.007	24.02184
638.2	24.2356
638.393	24.60273
638.586	19.05283
638.778	20.72283
638.971	21.47544
639.164	24.57033
639.357	21.47056
639.55	24.38252
639.743	23.18074
639.935	22.44936
640.128	25.72494
640.321	22.86867
640.514	21.1443
640.707	25.71588
640.899	22.38874
641.092	18.04115
641.285	37.02547
641.477	16.87491
641.67	26.63445
641.863	24.17413
642.055	22.21731
642.248	20.90197
642.441	20.61953
642.633	22.84948
642.826	23.54514
643.018	24.38409
643.211	25.60672
643.403	24.76779
643.596	26.97777
643.788	26.42019
643.981	21.4594
644.173	24.19248
644.366	21.28372
644.558	17.33931
644.751	24.31751
644.943	19.11922
645.135	24.15355
645.328	25.44974
645.52	22.41992
645.712	24.94884
645.905	28.92003
646.097	19.27261
646.289	21.83888
646.482	27.36198
646.674	20.56412
646.866	25.02955
647.058	23.31597
647.251	18.94902
647.443	20.8512
647.635	22.28164
647.827	19.07986
648.019	21.01696
648.211	21.89324
648.404	22.25456
648.596	26.15915
648.788	22.6387
648.98	22.43402
649.172	23.20537
649.364	22.56752
649.556	18.13528
649.748	29.26583
649.94	20.32269
650.132	23.45859
650.324	19.67697
650.516	21.26349
650.708	24.84643
650.9	19.12639
651.092	21.12133
651.284	19.22595
651.476	19.66147
651.667	24.17679
651.859	25.0525
652.051	22.70079
652.243	21.99218
652.435	20.93762
652.627	24.17603
652.818	22.79558
653.01	18.48523
653.202	19.6624
653.394	20.67172
653.585	23.67889
653.777	32.66344
653.969	25.12296
654.16	24.99466
654.352	19.26917
654.544	21.4224
654.735	24.8673
654.927	23.03092
655.118	25.89857
655.31	24.08677
655.502	25.58831
655.693	21.10368
655.885	24.58768
656.076	25.64456
656.268	22.90374
656.459	26.42012
656.651	25.14981
656.842	21.20538
657.034	21.59939
657.225	24.86282
657.416	25.51444
657.608	26.38651
657.799	23.65527
657.99	26.04257
658.182	21.87915
658.373	21.87225
658.564	24.91401
658.756	23.52018
658.947	22.8338
659.138	21.3119
659.33	22.54092
659.521	21.66312
659.712	23.04382
659.903	22.72107
660.094	22.19464
660.286	19.20422
660.477	27.41338
660.668	24.69882
660.859	22.88751
661.05	19.45062
661.241	24.71421
661.432	24.23411
661.623	22.03163
661.814	22.24886
662.006	18.97781
662.197	24.23906
662.388	26.43026
662.579	23.45944
662.77	26.38291
662.96	30.19527
663.151	25.03922
663.342	19.64365
663.533	24.71221
663.724	23.15645
663.915	27.03783
664.106	22.34945
664.297	28.78186
664.488	24.49718
664.678	21.21947
664.869	25.86872
665.06	25.74914
665.251	23.29053
665.442	24.7084
665.632	19.95951
665.823	27.4768
666.014	15.16151
666.204	25.89751
666.395	27.05126
666.586	32.31165
666.776	25.47913
666.967	27.9673
667.158	23.96589
667.348	26.77497
667.539	21.50508
667.729	26.28132
667.92	21.1338
668.111	26.38793
668.301	25.55656
668.492	23.44763
668.682	24.70138
668.873	23.68714
669.063	20.8041
669.253	24.77548
669.444	26.04828
669.634	23.18678
669.825	29.8732
670.015	26.68645
670.206	20.68767
670.396	28.82569
670.586	23.23495
670.777	25.6421
670.967	17.5968
671.157	22.30359
671.347	21.1503
671.538	27.68973
671.728	25.40819
671.918	30.30287
672.108	25.95304
672.299	23.67856
672.489	26.0276
672.679	22.61209
672.869	25.53334
673.059	30.74747
673.249	26.03179
673.44	20.23842
673.63	24.97485
673.82	28.03334
674.01	21.72877
674.2	25.80943
674.39	33.27667
674.58	27.13082
674.77	24.81724
674.96	23.86595
675.15	37.06714
675.34	29.2259
675.53	24.44088
675.72	24.5715
675.91	19.66695
676.099	31.16421
676.289	31.94481
676.479	27.82351
676.669	23.66996
676.859	26.42277
677.049	21.94902
677.238	24.37512
677.428	31.03673
677.618	27.52763
677.808	30.41666
677.997	26.9479
678.187	21.86981
678.377	24.74033
678.567	22.98488
678.756	23.30878
678.946	24.64884
679.136	21.04965
679.325	23.02415
679.515	22.49607
679.704	21.59204
679.894	27.73697
680.084	26.05258
680.273	28.40755
680.463	24.09404
680.652	22.54401
680.842	24.73775
681.031	28.20434
681.221	23.2566
681.41	27.65994
681.6	24.66761
681.789	27.69363
681.978	29.1935
682.168	26.05562
682.357	26.17311
682.547	27.70089
682.736	26.66014
682.925	30.68143
683.115	29.35755
683.304	28.93473
683.493	26.35871
683.682	27.78563
683.872	27.68811
684.061	30.32633
684.25	26.98124
684.439	32.32553
684.629	28.26758
684.818	38.50448
685.007	24.79002
685.196	24.75868
685.385	32.34186
685.574	27.36068
685.763	28.2899
685.952	27.51985
686.142	22.12134
686.331	31.539
686.52	20.82058
686.709	32.03587
686.898	31.98337
687.087	29.55721
687.276	33.4762
687.465	31.80225
687.654	26.46465
687.842	33.31713
688.031	23.82582
688.22	32.47891
688.409	27.5256
688.598	28.05898
688.787	37.61206
688.976	29.17532
689.165	34.37607
689.353	25.49225
689.542	28.0738
689.731	30.25329
689.92	35.14868
690.108	31.12092
690.297	27.02395
690.486	27.12989
690.675	30.97793
690.863	34.88139
691.052	34.23542
691.241	29.24499
691.429	28.10324
691.618	35.12522
691.806	22.92438
691.995	26.27133
692.184	28.91181
692.372	26.20529
692.561	29.25522
692.749	27.88065
692.938	39.95697
693.126	30.11185
693.315	29.16093
693.503	32.16362
693.692	29.74086
693.88	33.65131
694.068	37.55003
694.257	28.65798
694.445	31.35151
694.634	20.18988
694.822	31.69196
695.01	34.3481
695.199	35.37143
695.387	35.08306
695.575	33.59868
695.763	27.72615
695.952	26.49771
696.14	23.64956
696.328	27.02463
696.516	28.98551
696.705	30.43584
696.893	30.51777
697.081	22.0544
697.269	32.17357
697.457	25.08484
697.645	25.29021
697.833	31.5314
698.021	26.58829
698.21	28.57774
698.398	28.77333
698.586	25.34406
698.774	24.55391
698.962	27.75747
699.15	26.00037
699.338	24.06256
699.526	30.36194
699.714	26.45695
699.901	26.57465
700.089	32.83563
700.277	26.08029
700.465	27.84988
700.653	31.68975
700.841	30.63147
701.029	25.87404
701.217	33.5936
701.404	29.71176
701.592	35.44279
701.78	37.12418
701.968	27.82967
702.155	28.5655
702.343	22.19116
702.531	36.06866
702.718	30.25627
702.906	28.27221
703.094	25.72153
703.281	35.85734
703.469	30.9765
703.657	34.5927
703.844	43.94523
704.032	38.71824
704.219	27.07927
704.407	31.36846
704.595	36.09517
704.782	30.4385
704.97	27.75142
705.157	29.09847
705.345	36.78393
705.532	43.6868
705.719	33.2523
705.907	35.73831
706.094	31.66316
706.282	38.85731
706.469	28.97101
706.656	32.56132
706.844	29.79646
707.031	35.86629
707.218	31.29716
707.406	39.33152
707.593	35.53152
707.78	35.40429
707.968	31.90106
708.155	26.91959
708.342	34.87824
708.529	34.82799
708.716	32.77542
708.904	40.3667
709.091	34.71825
709.278	26.17946
709.465	42.8992
709.652	39.70908
709.839	40.29576
710.026	33.65216
710.213	24.79181
710.4	35.42304
710.587	36.91165
710.774	39.49952
710.961	38.7759
711.148	34.16125
711.335	38.82277
711.522	30.90725
711.709	35.58376
711.896	46.30222
712.083	38.94076
712.27	30.44804
712.457	35.28541
712.644	27.75978
712.831	43.95092
713.017	35.14817
713.204	36.70569
713.391	31.96102
713.578	41.03097
713.765	41.89702
713.951	36.22863
714.138	52.42382
714.325	37.82186
714.512	34.02226
714.698	29.87709
714.885	43.11655
715.072	36.38128
715.258	36.46826
715.445	31.95946
715.631	41.77269
715.818	22.27514
716.005	31.55143
716.191	39.49699
716.378	33.16114
716.564	39.04515
716.751	31.95841
716.937	32.06971
717.124	40.15629
717.31	31.55472
717.497	44.08666
717.683	31.80653
717.869	50.16646
718.056	32.18241
718.242	37.39519
718.429	34.25605
718.615	30.20852
718.801	37.05178
718.988	39.51284
719.174	39.99836
719.36	36.25211
719.547	39.78375
719.733	36.60701
719.919	38.02233
720.105	43.62007
720.291	36.28959
720.478	36.35598
720.664	35.25888
720.85	33.37806
721.036	52.93918
721.222	45.7005
721.408	37.6766
721.595	47.1413
721.781	47.68143
721.967	44.21063
722.153	49.10431
722.339	42.03753
722.525	39.03119
722.711	32.37675
722.897	31.06403
723.083	33.98138
723.269	42.38237
723.455	54.45038
723.641	59.42739
723.827	38.95404
724.012	41.83073
724.198	36.11359
724.384	46.47849
724.57	42.53765
724.756	28.9419
724.942	24.95644
725.127	44.21793
725.313	48.50811
725.499	47.02323
725.685	51.40249
725.87	41.32189
726.056	34.14022
726.242	46.80311
726.428	29.26147
726.613	44.80032
726.799	35.49088
726.985	32.27714
727.17	27.16527
727.356	51.05668
727.541	30.63365
727.727	37.22612
727.913	43.44913
728.098	36.90535
728.284	43.90614
728.469	29.77628
728.655	32.63682
728.84	45.74577
729.026	43.52891
729.211	44.67963
729.397	41.43392
729.582	42.8765
729.767	38.5013
729.953	40.29495
730.138	47.08085
730.323	24.75147
730.509	32.447
730.694	50.49105
730.879	42.99721
731.065	40.17556
731.25	53.96781
731.435	43.94658
731.621	30.46548
731.806	34.65604
731.991	40.48391
732.176	30.84974
732.361	50.82985
732.547	43.93977
732.732	28.26648
732.917	57.36632
733.102	30.25877
733.287	33.80115
733.472	39.92037
733.657	39.40893
733.842	28.01857
734.027	36.12371
734.212	37.73001
734.397	32.99205
734.582	40.15774
734.767	46.43301
734.952	49.75746
735.137	20.86917
735.322	50.21796
735.507	42.75928
735.692	42.1255
735.877	57.41151
736.062	53.88364
736.247	44.67685
736.431	37.57806
736.616	47.43038
736.801	40.16013
736.986	38.93945
737.171	32.00921
737.355	29.70246
737.54	49.67478
737.725	40.95843
737.909	61.83795
738.094	35.94067
738.279	48.34785
738.463	36.67773
738.648	46.98989
738.833	44.76633
739.017	56.49535
739.202	38.88383
739.386	40.00087
739.571	33.48363
739.756	49.28024
739.94	40.89534
740.125	46.69581
740.309	36.18384
740.494	48.43437
740.678	42.69219
740.863	46.81733
741.047	44.22374
741.231	54.68675
741.416	36.8975
741.6	54.45187
741.785	33.19903
741.969	49.42155
742.153	52.22247
742.338	24.81891
742.522	41.76552
742.706	45.80368
742.89	31.40786
743.075	43.29585
743.259	50.69777
743.443	49.85646
743.627	53.79312
743.812	62.46076
743.996	20.60222
744.18	40.66476
744.364	36.23778
744.548	66.26527
744.732	37.60938
744.916	49.85679
745.1	48.17658
745.285	39.59439
745.469	48.47589
745.653	58.48332
745.837	32.16317
746.021	64.44145
746.205	51.28173
746.389	43.15551
746.573	41.1295
746.757	56.48791
746.94	40.20804
747.124	56.56184
747.308	31.49555
747.492	51.43292
747.676	36.1593
747.86	68.72664
748.044	37.41499
748.227	25.98866
748.411	79.78633
748.595	46.35724
748.779	34.37979
748.963	47.62423
749.146	45.30983
749.33	36.4308
749.514	34.95322
749.697	54.36219
749.881	40.10275
750.065	34.04683
750.248	43.18316
750.432	67.31408
750.616	44.98024
750.799	29.431
750.983	65.90787
751.166	69.08399
751.35	29.85909
751.533	53.14824
751.717	58.82642
751.9	57.23791
752.084	37.95454
752.267	30.15556
752.451	38.45807
752.634	46.10638
752.818	51.45601
753.001	53.31546
753.184	53.00045
753.368	47.42701
753.551	12.43135
753.734	35.7545
753.918	66.17334
754.101	37.0746
754.284	49.80026
754.467	40.82366
754.651	37.65811
754.834	35.15127
755.017	55.92468
755.2	54.88241
755.384	33.16085
755.567	56.62313
755.75	54.33061
755.933	42.57353
756.116	46.42635
756.299	39.66772
756.482	35.26713
756.665	49.72766
756.848	45.66308
757.032	51.51938
757.215	29.80433
757.398	40.82793
757.581	34.48882
757.764	72.79238
757.947	42.1674
758.129	59.35772
758.312	15.97111
758.495	42.76019
758.678	46.25058
758.861	41.2048
759.044	64.10675
759.227	37.47367
759.41	38.01124
759.592	53.10872
759.775	45.74938
759.958	54.48854
760.141	33.86562
760.324	67.30618
760.506	61.34257
760.689	52.10483
760.872	76.82713
761.054	52.16072
761.237	41.74179
761.42	47.67261
761.602	52.75471
761.785	49.23787
761.968	58.20046
762.15	61.35013
762.333	40.3991
762.515	46.88518
762.698	40.53904
762.88	51.79711
763.063	46.2482
763.245	52.06532
763.428	36.38208
763.61	39.99558
763.793	32.43624
763.975	47.05905
764.158	41.1134
764.34	39.78891
764.522	35.66548
764.705	42.95202
764.887	56.03137
765.069	32.61614
765.252	51.35395
765.434	52.72446
765.616	43.52979
765.799	38.29158
765.981	51.79983
766.163	38.84392
766.345	55.5067
766.528	39.52712
766.71	21.38095
766.892	45.58188
767.074	58.91883
767.256	43.94024
767.438	63.2049
767.62	52.9084
767.802	69.50633
767.985	53.28585
768.167	73.78794
768.349	41.97476
768.531	56.06434
768.713	49.36831
768.895	55.79053
769.077	50.6007
769.259	75.88488
769.441	109.92076
769.623	56.049
769.804	69.11042
769.986	62.34548
770.168	84.25133
770.35	90.14612
770.532	73.53606
770.714	74.47953
770.896	81.85083
771.077	36.2283
771.259	83.56615
771.441	67.00545
771.623	90.65566
771.804	106.7521
771.986	35.00481
772.168	53.45984
772.35	82.50695
772.531	105.39129
772.713	67.05313
772.894	87.11523
773.076	67.19282
773.258	52.8369
773.439	91.12376
773.621	102.63516
773.802	47.43832
773.984	66.50353
774.166	68.76527
774.347	98.76686
774.529	83.63812
774.71	31.72948
774.891	59.32877
775.073	61.4586
775.254	97.06487
775.436	54.31984
775.617	111.79975
775.799	53.78282
775.98	91.16286
776.161	97.22994
776.343	99.66998
776.524	67.24951
776.705	59.26015
776.886	33.90594
777.068	73.0487
777.249	126.5194
777.43	108.21081
777.611	43.77454
777.793	64.66718
777.974	97.54012
778.155	57.74625
778.336	53.416
778.517	111.82769
778.698	51.89476
778.879	31.75964
779.061	14.80194
779.242	74.05016
779.423	70.71466
779.604	55.32544
779.785	66.93193
779.966	68.54461
780.147	89.06514
780.328	89.11657
780.509	122.14218
780.69	82.43088
780.871	60.62703
781.051	39.33697
781.232	73.07984
781.413	71.41878
781.594	61.72392
781.775	59.71184
781.956	53.83828
782.137	33.47039
782.317	54.06515
782.498	76.14954
782.679	75.72457
782.86	73.06822
783.04	52.73169
783.221	78.81019
783.402	107.2087
783.583	69.80451
783.763	87.19909
783.944	58.91199
784.124	38.73357
784.305	102.99182
784.486	77.13704
784.666	69.78473
784.847	37.51463
785.027	129.42126
785.208	51.75529
785.388	54.63259
785.569	57.09063
785.749	62.58562
785.93	59.84273
786.11	35.847
786.291	72.98602
786.471	69.8553
786.652	85.14537
786.832	68.01419
787.012	72.81921
787.193	40.4845
787.373	71.27144
787.553	61.63238
787.734	72.06533
787.914	61.96733
788.094	79.80839
788.275	75.25201
788.455	60.87335
788.635	43.48436
788.815	68.00515
788.995	49.59933
789.176	39.69193
789.356	49.7183
789.536	60.30488
789.716	78.78825
789.896	49.79497
790.076	54.42594
790.256	75.15711
790.436	24.19734
790.616	47.14893
790.796	70.18621
790.976	60.98336
791.156	51.68098
791.336	84.46297
791.516	72.77485
791.696	59.34253
791.876	39.74684
792.056	68.38574
792.236	86.03907
792.416	87.26659
792.596	78.26025
792.776	76.95551
792.956	81.05388
793.135	101.76959
793.315	46.98887
793.495	92.42587
793.675	85.40228
793.854	85.68305
794.034	84.44035
794.214	49.14682
794.394	86.23264
794.573	92.83895
794.753	67.86773
794.933	49.9924
795.112	75.43882
795.292	85.42939
795.472	103.90592
795.651	43.56755
795.831	67.21324
796.01	61.26312
796.19	58.83399
796.369	65.9734
796.549	78.86379
796.728	61.31737
796.908	41.66943
797.087	47.66863
797.267	61.10438
797.446	44.09665
797.626	78.58024
797.805	74.80224
797.984	56.92161
798.164	80.97214
798.343	51.51475
798.522	70.53759
798.702	68.57576
798.881	43.87759
799.06	58.21391
799.239	30.56236
799.419	46.74726
799.598	100.9866
799.777	73.22702
799.956	88.40426
800.136	59.87372
800.315	52.27325
800.494	75.12076
800.673	87.28541
800.852	79.63782
801.031	95.65996
801.21	80.91111
801.389	55.30467
801.568	68.46073
801.747	107.72943
801.926	67.25438
802.105	103.29585
802.284	59.34816
802.463	98.51631
802.642	71.86317
802.821	68.51322
803	89.41523
803.179	90.33933
803.358	94.7782
803.537	54.2354
803.716	72.81332
803.895	50.8019
804.073	66.00836
804.252	55.18226
804.431	75.01001
804.61	60.94753
804.789	93.14824
804.967	57.937
805.146	56.67134
805.325	112.39184
805.503	77.09678
805.682	42.98736
805.861	132.57767
806.039	99.80738
806.218	54.99728
806.397	75.20859
806.575	73.76639
806.754	76.03174
806.932	49.20422
807.111	96.37489
807.289	98.55175
807.468	69.08126
807.646	92.14024
807.825	84.74875
808.003	79.33861
808.182	93.45109
808.36	75.48935
808.539	48.57493
808.717	106.34946
808.895	53.1046
809.074	76.31549
809.252	66.71329
809.43	90.18346
809.609	101.68321
809.787	120.64346
809.965	69.30893
810.144	73.01808
810.322	70.99902
810.5	78.74509
810.678	66.83628
810.856	112.02399
811.035	104.95031
811.213	95.67485
811.391	96.23398
811.569	84.26932
811.747	156.04052
811.925	107.03951
812.103	55.26042
812.281	75.59212
812.459	126.08688
812.637	126.79313
812.816	97.47835
812.994	124.90916
813.171	108.36562
813.349	94.29171
813.527	107.80481
813.705	104.00484
813.883	126.69162
814.061	104.70351
814.239	131.73325
814.417	128.90898
814.595	92.26325
814.773	82.63223
814.95	82.79059
815.128	87.07189
815.306	79.97373
815.484	75.99031
815.662	59.51193
815.839	52.86805
816.017	63.03202
816.195	107.09013
816.372	68.89908
816.55	101.78169
816.728	115.05854
816.905	73.71021
817.083	108.30307
817.261	70.94181
817.438	150.47448
817.616	128.58423
817.793	60.61575
817.971	104.06401
818.148	95.07179
818.326	122.77451
818.503	85.6966
818.681	117.6666
818.858	66.68458
819.036	70.98367
819.213	79.87633
819.391	60.36129
819.568	59.75457
819.745	54.07125
819.923	92.67925
820.1	67.78808
820.277	57.70463
820.455	67.63818
820.632	67.75919
820.809	71.29478
820.986	49.47325
821.164	41.19765
821.341	37.72379
821.518	50.14831
821.695	41.98763
821.872	40.67875
822.05	35.96248
822.227	32.2364
822.404	33.89741
822.581	37.33857
822.758	34.13691
822.935	34.40313
823.112	37.53091
823.289	33.49023
823.466	37.20352
823.643	35.88137
823.82	40.28307
823.997	37.25849
824.174	39.60736
824.351	48.63963
824.528	46.38701
824.705	44.73975
824.882	45.42644
825.059	55.46471
825.236	42.9025
825.412	42.47851
825.589	52.46905
825.766	69.62834
825.943	46.83308
826.12	51.91017
826.296	38.82811
826.473	49.05633
826.65	49.01852
826.827	60.23473
827.003	43.05021
827.18	46.1988
827.357	52.77297
827.533	45.2278
827.71	30.97668
827.887	41.12529
828.063	47.85905
828.24	41.5559
828.416	51.98002
828.593	45.38923
828.769	61.38525
828.946	61.90501
829.122	62.2863
829.299	63.6448
829.475	35.52302
829.652	61.06846
829.828	90.52112
830.005	58.31051
830.181	79.43391
830.357	56.48543
830.534	87.13513
830.71	71.98927
830.886	80.56921
831.063	80.27211
831.239	101.87052
831.415	51.89434
831.592	107.13417
831.768	71.15726
831.944	57.40238
832.12	111.64928
832.296	108.51264
832.473	92.76875
832.649	58.62642
832.825	84.13774
833.001	49.55397
833.177	73.66303
833.353	67.27959
833.529	42.78743
833.705	58.81929
833.881	46.64022
834.058	44.62575
834.234	47.91964
834.41	47.47695
834.586	40.20725
834.761	46.48529
834.937	49.60855
835.113	50.51085
835.289	46.52668
835.465	53.71254
835.641	47.70262
835.817	51.61717
835.993	89.12841
836.169	47.00358
836.344	63.47939
836.52	75.05757
836.696	80.36967
836.872	56.9893
837.048	157.57625
837.223	69.62863
837.399	133.51551
837.575	106.95932
837.75	95.42897
837.926	141.93203
838.102	211.98947
838.277	165.04907
838.453	227.92172
838.628	222.99251
838.804	72.70151
838.98	221.44811
839.155	109.56729
839.331	148.15508
839.506	100.68426
839.682	92.71253
839.857	123.00827
840.033	145.42905
840.208	74.071
840.384	46.44003
840.559	78.01543
840.734	110.9988
840.91	148.31984
841.085	97.09401
841.26	103.84661
841.436	88.46272
841.611	82.2983
841.786	130.06443
841.962	168.19356
842.137	122.66942
842.312	64.31636
842.487	102.99685
842.663	92.21002
842.838	102.66722
843.013	334.00404
843.188	193.54938
843.363	146.1833
843.538	315.24905
843.714	361.50144
843.889	312.91797
844.064	310.02551
844.239	241.19789
844.414	469.10175
844.589	257.05278
844.764	414.52414
844.939	386.17197
845.114	438.89022
845.289	447.36219
845.464	506.00807
845.639	382.60269
845.814	203.58833
845.989	305.57626
846.163	226.2504
846.338	318.18069
846.513	451.47601
846.688	265.11137
846.863	307.93456
847.038	253.58675
847.212	300.43119
847.387	352.49433
847.562	298.72366
847.737	461.98271
847.911	183.06682
848.086	198.5323
848.261	488.09311
848.435	266.83648
848.61	360.60408
848.785	220.65798
848.959	424.84062
849.134	469.80783
849.308	645.9946
849.483	342.89357
849.658	519.29809
849.832	275.53301
850.007	256.17882
850.181	653.46947
850.356	233.89441
850.53	762.34872
850.705	337.5679
850.879	174.19586
851.053	308.72719
851.228	308.04018
851.402	475.0546
851.577	474.71664
851.751	583.69295
851.925	353.90721
852.099	134.7878
852.274	248.68409
852.448	310.26896
852.622	492.67852
852.797	352.02085
852.971	330.195
853.145	420.31864
853.319	740.44533
853.493	661.74441
853.668	502.80428
853.842	777.22076
854.016	490.13898
854.19	703.32424
854.364	344.96229
854.538	368.41708
854.712	756.26968
854.886	397.06957
855.06	300.95711
855.234	112.14882
855.408	643.72156
855.582	396.18844
855.756	649.11266
855.93	570.35117
856.104	665.51245
856.278	583.0194
856.452	375.1547
856.626	409.95412
856.8	962.34093
856.973	392.25238
857.147	486.24359
857.321	443.92076
857.495	535.87059
857.669	339.44158
857.842	438.52193
858.016	622.63778
858.19	227.78368
858.364	775.29995
858.537	388.89619
858.711	546.1485
858.885	414.03721
859.058	248.58717
859.232	157.36629
859.405	168.70642
859.579	485.8086
859.753	566.60985
859.926	232.77387
860.1	257.20167
860.273	403.26899
860.447	485.51654
860.62	380.66403
860.794	615.21642
860.967	357.62896
861.141	485.49917
861.314	814.9993
861.487	445.8404
861.661	487.01062
861.834	529.40784
862.008	708.01756
862.181	452.86698
862.354	536.95278
862.528	467.71122
862.701	336.61359
862.874	192.77243
863.047	352.1586
863.221	295.10256
863.394	179.18443
863.567	438.64322
863.74	162.92673
863.913	526.51018
864.087	522.96573
864.26	470.96992
864.433	363.84289
864.606	593.20606
864.779	369.77606
864.952	142.15148
865.125	427.22518
865.298	312.02003
865.471	339.57206
865.644	784.45965
865.817	534.02442
865.99	485.57302
866.163	465.15665
866.336	256.23563
866.509	347.29204
866.682	577.4157
866.855	748.85358
867.028	213.76779
867.2	389.85415
867.373	107.59977
867.546	389.45915
867.719	696.42177
867.892	459.99134
868.064	295.79516
868.237	325.30061
868.41	374.58215
868.583	179.807
868.755	227.56403
868.928	427.08715
869.101	848.3154
869.273	546.06749
869.446	518.71938
869.619	587.33838
869.791	389.72702
869.964	522.09439
870.136	883.53656
870.309	396.88156
870.481	405.31116
870.654	220.57982
870.826	336.10385
870.999	222.7256
871.171	418.53256
871.344	262.55144
871.516	299.20549
871.689	246.47859
871.861	342.1447
872.033	291.49324
872.206	267.06554
872.378	347.11291
872.55	350.70761
872.723	194.11219
872.895	321.27414
873.067	448.51703
873.24	384.31276
873.412	338.37659
873.584	385.28781
873.756	347.34621
873.928	479.18248
874.101	346.23711
874.273	409.24763
874.445	138.88465
874.617	255.60192
874.789	322.89315
874.961	346.3935
875.133	367.75763
875.305	374.17497
875.477	267.83088
875.649	160.59007
875.821	176.55695
875.993	589.94698
876.165	349.82482
876.337	380.345
876.509	314.19274
876.681	401.64408
876.853	370.53069
877.025	352.15121
877.197	234.14937
877.369	163.62222
877.541	346.52817
877.712	94.95584
877.884	180.17716
878.056	344.01525
878.228	180.11552
878.4	401.36595
878.571	166.08387
878.743	134.66666
878.915	281.88927
879.086	141.59712
879.258	191.66738
879.43	182.37664
879.601	149.01567
879.773	154.99302
879.945	40.80422
880.116	64.13064
880.288	41.91521
880.459	45.80186
880.631	39.91141
880.802	47.80261
880.974	44.00762
881.145	35.4282
881.317	42.67564
881.488	36.96585
881.66	40.00846
881.831	37.41435
882.002	44.98458
882.174	37.57639
882.345	42.69575
882.517	30.01405
882.688	49.10419
882.859	39.87422
883.03	60.64593
883.202	54.48409
883.373	48.06918
883.544	46.04252
883.715	72.19548
883.887	64.05744
884.058	51.80365
884.229	78.00541
884.4	74.67046
884.571	85.20361
884.742	77.51661
884.914	81.04237
885.085	119.96388
885.256	158.4929
885.427	134.01858
885.598	166.86194
885.769	155.55783
885.94	158.19631
886.111	107.27387
886.282	193.30815
886.453	175.65094
886.624	110.88216
886.795	220.23865
886.966	182.71562
887.136	224.65843
887.307	166.54069
887.478	312.26657
887.649	276.01961
887.82	279.8817
887.991	232.94043
888.161	352.42764
888.332	348.80472
888.503	146.59404
888.674	396.69728
888.844	544.1252
889.015	340.14611
889.186	203.15522
889.356	496.78307
889.527	185.43888
889.698	685.46442
889.868	240.25079
890.039	410.76252
890.209	311.21225
890.38	421.72014
890.551	347.59516
890.721	425.3963
890.892	482.16631
891.062	436.96899
891.233	523.04566
891.403	514.19516
891.574	296.3404
891.744	272.74441
891.914	314.57877
892.085	398.12471
892.255	121.9202
892.425	460.16721
892.596	333.58275
892.766	413.35252
892.936	459.56047
893.107	407.55068
893.277	157.33953
893.447	191.93967
893.618	118.44208
893.788	199.65764
893.958	130.62721
894.128	109.83987
894.298	135.63863
894.468	167.44903
894.639	77.51071
894.809	51.15217
894.979	82.69145
895.149	95.78229
895.319	80.12978
895.489	105.16327
895.659	148.02505
895.829	94.43363
895.999	97.87371
896.169	74.37636
896.339	99.13558
896.509	199.55748
896.679	213.43522
896.849	232.16277
897.019	288.35362
897.189	256.92652
897.358	222.64764
897.528	350.27551
897.698	225.27765
897.868	332.23834
898.038	635.44943
898.208	628.49214
898.377	189.38823
898.547	1002.31719
898.717	1458.99005
898.886	426.07544
899.056	642.1572
899.226	1463.61945
899.395	749.83919
899.565	1301.0022
899.735	885.02745
899.904	910.59939
900.074	1037.38568
900.244	298.49687
900.413	1276.56194
900.583	428.15081
900.752	1300.78948
900.922	1091.13675
901.091	97.13886
901.261	1876.43491
901.43	564.01711
901.599	2341.63061
901.769	1469.4405
901.938	1077.57733
902.108	1633.95355
902.277	811.51884
902.446	385.35046
902.616	379.61008
902.785	589.68279
902.954	714.8896
903.124	529.38845
903.293	303.51595
903.462	141.89907
903.631	202.90478
903.801	154.19111
903.97	70.37516
904.139	122.28203
904.308	91.35937
904.477	79.5839
904.646	44.71059
904.816	70.86881
904.985	118.57832
905.154	159.46888
