Data from WindowProjectSample2_Transmission__4__00009.txt Node

Date: Sat May 03 22:28:58 EDT 2025
User: jessi
Spectrometer: SR400872
Trigger mode: 0
Integration Time (sec): 5.000010E-1
Scans to average: 10
Electric dark correction enabled: true
Nonlinearity correction enabled: true
Boxcar width: 0
XAxis mode: Wavelengths
Number of Pixels in Spectrum: 3648
>>>>>Begin Spectral Data<<<<<
184.909	-6481.74919
185.132	7720.55326
185.355	19639.43324
185.578	8602.38459
185.801	-1068.79911
186.024	-2071.87801
186.247	-4908.36255
186.47	-2266.21244
186.693	-226.36503
186.916	-255.77336
187.139	-4414.88585
187.362	-14168.25123
187.585	2259.76873
187.808	-3494.64551
188.031	-0.98484
188.254	3343.31544
188.476	-1637.68707
188.699	-40871.16204
188.922	4213.8168
189.145	-7559.96521
189.368	1130.12275
189.591	1189.26651
189.813	1390.07592
190.036	-3885.41625
190.259	2095.39241
190.482	10160.05259
190.705	3332.14843
190.927	12483.62031
191.15	5736.99718
191.373	1730.00425
191.595	4932.29104
191.818	3049.43068
192.041	547.02222
192.263	2773.92503
192.486	-1792.77708
192.709	-11837.41191
192.931	6003.90506
193.154	-15564.50595
193.377	5970.38675
193.599	11258.028
193.822	-1646.27824
194.044	1018.35291
194.267	1204.04515
194.489	50.90422
194.712	-6204.93593
194.934	4754.53634
195.157	-4417.20114
195.379	939.86034
195.602	1728.86467
195.824	10509.68451
196.047	4558.01243
196.269	-10800.77416
196.492	-11315.71085
196.714	-4775.8617
196.936	-4312.38514
197.159	6200.46095
197.381	-811.17305
197.604	3111.27453
197.826	-14836.1072
198.048	3698.08052
198.271	2228.41615
198.493	1802.50883
198.715	2654.74443
198.938	-2984.73874
199.16	2381.2807
199.382	3274.57803
199.604	3905.77869
199.827	-1243.19158
200.049	-2158.31953
200.271	3770.33684
200.493	-3045.88022
200.715	8235.76102
200.938	3257.91206
201.16	-6693.49727
201.382	-168072.16962
201.604	-8007.16197
201.826	2302.41081
202.048	22083.99373
202.27	18634.13266
202.492	4872.65769
202.715	-6316.85051
202.937	-6045.5714
203.159	-44061.20746
203.381	2241.48267
203.603	4403.42649
203.825	-1729.46048
204.047	4201.98662
204.269	11050.27418
204.491	1618.71551
204.713	9380.85751
204.935	6310.85069
205.156	-10140.82333
205.378	1018.8415
205.6	3283.35761
205.822	5029.24749
206.044	1667.29456
206.266	5036.06943
206.488	2718.84385
206.71	16028.79329
206.932	-10629.22613
207.153	-4474.47545
207.375	5735.65894
207.597	9096.27795
207.819	2960.34287
208.041	27782.02199
208.262	-1854.32479
208.484	-5491.888
208.706	1196.0093
208.927	4608.50221
209.149	2228.97379
209.371	4425.18412
209.593	393.13699
209.814	2965.74455
210.036	2697.05107
210.258	1452.34677
210.479	791.81919
210.701	1561.90831
210.922	-9618.7627
211.144	3629.83158
211.366	1852.39648
211.587	1279.17995
211.809	8815.38782
212.03	3506.49415
212.252	3127.25167
212.473	6158.03067
212.695	1880.51508
212.916	3751.67373
213.138	1442.99176
213.359	-4730.23861
213.581	1719.82404
213.802	1274.88244
214.024	-11802.20098
214.245	-4319.43032
214.466	949.53056
214.688	2874.43375
214.909	3597.16905
215.131	-11864.97037
215.352	2053.9831
215.573	14146.68148
215.795	1924.96793
216.016	3469.41433
216.237	-1274.53028
216.459	2497.1787
216.68	-15317.86905
216.901	2996.26872
217.122	-9311.46148
217.344	-2087.58124
217.565	-59375.90354
217.786	-103769.11841
218.007	612.19925
218.228	775.62693
218.45	16276.37934
218.671	473.03099
218.892	1821.92099
219.113	1338.01601
219.334	-1037.95422
219.555	3952.87032
219.776	6084.66276
219.997	5159.76422
220.219	5670.34058
220.44	1349.06707
220.661	-10392.39481
220.882	5820.36871
221.103	-11721.10364
221.324	1339.322
221.545	3107.41606
221.766	2445.18031
221.987	1741.84626
222.208	769.11686
222.429	1634.09741
222.65	294.8179
222.87	765.77724
223.091	2835.33968
223.312	2085.90934
223.533	1092.17092
223.754	7358.64454
223.975	6629.46901
224.196	1109.98845
224.417	-23838.09447
224.637	763.30919
224.858	156.02599
225.079	10037.43823
225.3	1805.82992
225.521	2895.43015
225.741	722.48866
225.962	686.14799
226.183	337.26661
226.404	1136.09763
226.624	1369.66906
226.845	634.72481
227.066	655.88715
227.286	350.20325
227.507	172.21141
227.728	189.92015
227.948	277.10505
228.169	90.48604
228.389	92.43834
228.61	51.01556
228.831	71.81416
229.051	5.19963
229.272	41.97106
229.492	62.22524
229.713	18.77686
229.933	46.25412
230.154	40.61933
230.374	65.01478
230.595	45.63759
230.815	31.10532
231.036	48.34085
231.256	-8.8171
231.477	89.79055
231.697	51.58016
231.917	54.30184
232.138	72.07708
232.358	156.81032
232.579	131.40894
232.799	22.80354
233.019	121.58145
233.24	148.2236
233.46	54.4396
233.68	86.75856
233.901	57.43649
234.121	40.8335
234.341	13.84661
234.561	-3.9764
234.782	30.62943
235.002	90.39445
235.222	-1.69115
235.442	72.87382
235.662	41.33358
235.883	78.84621
236.103	65.82243
236.323	54.02125
236.543	37.59492
236.763	54.06553
236.983	56.46033
237.203	56.74706
237.423	81.58826
237.643	112.0999
237.864	97.47308
238.084	23.59362
238.304	38.84443
238.524	64.90823
238.744	55.64974
238.964	86.95228
239.184	74.54677
239.404	80.06944
239.624	40.73181
239.843	69.48832
240.063	42.40858
240.283	29.6355
240.503	32.93344
240.723	29.60278
240.943	17.94041
241.163	23.98051
241.383	17.25087
241.603	8.78332
241.822	10.81402
242.042	8.26844
242.262	10.12896
242.482	11.61229
242.702	12.97194
242.921	5.00122
243.141	9.19868
243.361	8.07209
243.581	12.0378
243.8	9.89053
244.02	6.57476
244.24	12.80384
244.459	12.90309
244.679	23.5015
244.899	15.89045
245.118	18.3752
245.338	16.1046
245.558	17.82715
245.777	9.47355
245.997	11.65701
246.216	13.07211
246.436	8.08324
246.655	5.398
246.875	3.80387
247.094	7.49102
247.314	2.86179
247.533	4.35702
247.753	5.41796
247.972	4.70345
248.192	1.80245
248.411	2.74285
248.631	4.88414
248.85	6.13181
249.07	5.49417
249.289	8.54297
249.508	5.97731
249.728	9.88967
249.947	9.62046
250.166	11.6777
250.386	5.94058
250.605	9.71677
250.824	14.87587
251.044	11.42245
251.263	29.19898
251.482	16.93898
251.701	15.36432
251.921	0.30693
252.14	5.12557
252.359	5.54347
252.578	13.10373
252.798	4.13046
253.017	11.08908
253.236	5.88112
253.455	8.68725
253.674	15.83921
253.893	6.91743
254.112	12.01186
254.331	15.46592
254.551	14.02531
254.77	6.32123
254.989	18.70157
255.208	13.78041
255.427	18.19481
255.646	16.95103
255.865	26.06231
256.084	10.51385
256.303	14.11212
256.522	17.5812
256.741	5.46161
256.96	5.57324
257.179	9.68843
257.397	14.20955
257.616	7.51303
257.835	8.35779
258.054	18.96993
258.273	12.4001
258.492	13.33004
258.711	8.19185
258.93	3.55224
259.148	5.36811
259.367	5.34988
259.586	6.72083
259.805	3.00361
260.023	6.01173
260.242	4.62948
260.461	3.3397
260.68	1.96589
260.898	5.65164
261.117	2.09436
261.336	1.29955
261.554	4.6007
261.773	4.78532
261.992	1.24531
262.21	4.67868
262.429	5.90534
262.648	8.88846
262.866	10.31756
263.085	7.25572
263.303	6.71833
263.522	11.19375
263.74	11.16793
263.959	19.26338
264.178	9.36306
264.396	8.8706
264.615	5.66653
264.833	14.6493
265.051	12.98599
265.27	13.06858
265.488	13.92431
265.707	8.8315
265.925	14.01077
266.144	6.41804
266.362	7.63463
266.58	7.50296
266.799	6.67171
267.017	7.30532
267.235	6.48368
267.454	4.48277
267.672	2.79897
267.89	5.46193
268.109	6.0913
268.327	6.21375
268.545	1.46738
268.763	4.98376
268.982	2.65729
269.2	6.74963
269.418	3.71718
269.636	3.19946
269.854	5.47034
270.073	4.35788
270.291	2.24192
270.509	2.43781
270.727	5.72549
270.945	8.88537
271.163	8.99168
271.381	2.04441
271.599	3.68063
271.817	6.7347
272.036	2.24349
272.254	3.83865
272.472	3.26257
272.69	3.13796
272.908	3.29189
273.126	5.28372
273.344	6.8084
273.562	2.5741
273.779	3.11833
273.997	5.14809
274.215	5.50651
274.433	4.09397
274.651	6.20109
274.869	6.21854
275.087	3.94929
275.305	5.80557
275.523	3.39178
275.74	4.06764
275.958	6.91192
276.176	10.23275
276.394	3.52132
276.612	4.64948
276.829	4.18136
277.047	3.73358
277.265	3.76272
277.483	4.64604
277.7	5.70879
277.918	4.74718
278.136	7.87544
278.353	3.90126
278.571	2.44922
278.789	6.21534
279.006	1.5659
279.224	4.09502
279.442	6.36646
279.659	4.60779
279.877	3.0165
280.094	6.8478
280.312	1.39806
280.529	4.35174
280.747	1.24202
280.964	3.80077
281.182	7.14287
281.399	3.49162
281.617	4.52648
281.834	3.47336
282.052	3.07675
282.269	4.09428
282.487	3.37799
282.704	2.88677
282.921	2.96997
283.139	4.46182
283.356	5.39821
283.574	4.8148
283.791	2.53253
284.008	6.69123
284.226	3.77244
284.443	4.20627
284.66	5.35887
284.877	4.47375
285.095	2.71522
285.312	2.11552
285.529	1.343
285.746	1.13814
285.964	2.70831
286.181	1.71322
286.398	2.55549
286.615	3.40319
286.832	3.22904
287.05	0.98734
287.267	2.47674
287.484	2.52821
287.701	3.5431
287.918	3.57687
288.135	3.53514
288.352	1.55151
288.569	2.08394
288.786	2.89284
289.003	2.46035
289.22	3.64243
289.437	2.24464
289.654	3.79588
289.871	3.82702
290.088	3.78466
290.305	2.71978
290.522	2.38157
290.739	2.64741
290.956	3.91527
291.173	4.76379
291.39	4.36285
291.607	3.26096
291.824	2.41351
292.04	1.65072
292.257	3.79012
292.474	4.31738
292.691	2.62665
292.908	1.14323
293.125	2.22343
293.341	1.45873
293.558	6.40727
293.775	2.68461
293.992	2.84383
294.208	1.09339
294.425	1.60973
294.642	2.5019
294.858	3.28757
295.075	1.04685
295.292	2.55581
295.508	3.02598
295.725	4.52331
295.942	2.28714
296.158	1.52095
296.375	2.56971
296.591	2.03305
296.808	2.10998
297.024	2.44604
297.241	2.71107
297.458	2.82713
297.674	0.25058
297.891	2.49088
298.107	1.76504
298.323	1.43604
298.54	3.34278
298.756	1.78309
298.973	0.91203
299.189	3.80165
299.406	1.48195
299.622	3.7212
299.838	3.61951
300.055	3.20592
300.271	0.86742
300.487	1.33753
300.704	1.49201
300.92	0.95577
301.136	4.80832
301.353	3.66956
301.569	2.62517
301.785	2.83147
302.001	3.46732
302.218	2.8592
302.434	3.13085
302.65	0.91504
302.866	2.05273
303.083	5.00079
303.299	4.54851
303.515	2.50524
303.731	2.77837
303.947	0.80521
304.163	1.83408
304.379	2.66998
304.595	3.13551
304.812	1.68814
305.028	1.54265
305.244	2.16115
305.46	3.38931
305.676	3.2706
305.892	4.02216
306.108	2.93111
306.324	2.19518
306.54	4.68699
306.756	3.28075
306.972	3.05821
307.187	2.23217
307.403	4.33086
307.619	2.00407
307.835	3.78005
308.051	4.28754
308.267	1.34563
308.483	3.57762
308.699	2.87203
308.914	2.50029
309.13	2.41543
309.346	0.58457
309.562	1.49458
309.778	0.76085
309.993	3.03807
310.209	2.39476
310.425	1.17905
310.641	2.03618
310.856	1.19435
311.072	1.18954
311.288	2.40076
311.503	2.52095
311.719	0.70575
311.935	0.41138
312.15	2.64467
312.366	2.4183
312.581	3.00999
312.797	2.46718
313.013	3.18497
313.228	1.82181
313.444	2.4584
313.659	1.72011
313.875	2.87442
314.09	2.3947
314.306	3.91258
314.521	3.37211
314.737	3.11755
314.952	2.55173
315.168	2.2642
315.383	2.90675
315.599	2.39023
315.814	2.38749
316.029	3.41574
316.245	1.16987
316.46	0.74843
316.675	3.97534
316.891	4.91179
317.106	5.79301
317.321	3.1867
317.537	3.17703
317.752	3.25127
317.967	3.41142
318.183	1.69365
318.398	2.16169
318.613	3.71941
318.828	4.13982
319.043	3.58069
319.259	2.26406
319.474	3.00126
319.689	3.8352
319.904	0.79496
320.119	3.47266
320.334	3.03311
320.549	2.37762
320.765	4.10229
320.98	2.87682
321.195	3.59726
321.41	2.45956
321.625	3.53
321.84	4.68732
322.055	4.55458
322.27	2.06371
322.485	1.28411
322.7	3.11172
322.915	3.78226
323.13	1.6574
323.345	4.23268
323.56	3.09013
323.775	3.34642
323.989	3.13077
324.204	2.71151
324.419	3.57747
324.634	1.08534
324.849	2.39898
325.064	4.8795
325.279	3.42639
325.493	3.21936
325.708	3.79054
325.923	1.93005
326.138	1.8403
326.352	4.33289
326.567	3.68009
326.782	2.02706
326.997	1.78078
327.211	3.44663
327.426	3.11061
327.641	2.31331
327.855	0.97104
328.07	3.13795
328.285	4.56749
328.499	2.36866
328.714	3.09792
328.928	3.59139
329.143	2.60578
329.358	3.86075
329.572	3.80861
329.787	4.09507
330.001	5.50412
330.216	1.10916
330.43	4.56162
330.645	4.84235
330.859	3.72684
331.074	2.11138
331.288	2.93841
331.503	4.3492
331.717	1.73981
331.931	2.77497
332.146	2.87848
332.36	4.70915
332.575	3.18287
332.789	2.85995
333.003	2.38217
333.218	3.27594
333.432	1.85732
333.646	3.61646
333.86	4.41093
334.075	4.63685
334.289	2.09482
334.503	1.68845
334.717	3.27463
334.932	3.23454
335.146	4.22116
335.36	2.43257
335.574	3.43844
335.788	3.6501
336.003	4.06243
336.217	3.49091
336.431	3.16837
336.645	2.16785
336.859	1.48114
337.073	2.43123
337.287	2.77168
337.501	1.49996
337.715	2.76482
337.929	3.10097
338.143	1.31319
338.357	2.46741
338.571	1.59272
338.785	3.18606
338.999	2.15827
339.213	2.0476
339.427	1.12613
339.641	3.96049
339.855	2.54179
340.069	2.16276
340.283	3.66792
340.497	4.46823
340.711	3.35237
340.924	2.27605
341.138	1.52577
341.352	1.25166
341.566	2.68512
341.78	0.72802
341.993	2.07008
342.207	1.52289
342.421	2.98258
342.635	2.68076
342.848	1.89754
343.062	0.52589
343.276	1.7895
343.49	4.79502
343.703	1.7687
343.917	3.51301
344.131	3.52156
344.344	1.81454
344.558	2.00413
344.771	1.51002
344.985	3.75581
345.199	4.13995
345.412	2.92212
345.626	2.67095
345.839	0.83337
346.053	1.39165
346.266	1.44453
346.48	3.24391
346.693	2.84342
346.907	2.93789
347.12	1.71149
347.334	2.72652
347.547	2.94413
347.76	2.34844
347.974	3.89959
348.187	2.73429
348.401	2.16908
348.614	1.78605
348.827	2.29643
349.041	3.35303
349.254	0.69405
349.467	2.49484
349.681	1.27198
349.894	1.90952
350.107	3.59011
350.32	4.09506
350.534	1.03589
350.747	2.11362
350.96	1.57124
351.173	1.78522
351.386	2.0235
351.6	1.90818
351.813	1.83672
352.026	2.31302
352.239	1.1984
352.452	2.05586
352.665	3.21709
352.878	2.25913
353.092	4.45406
353.305	2.93295
353.518	2.49829
353.731	1.41629
353.944	3.27949
354.157	1.56753
354.37	1.51233
354.583	1.37559
354.796	0.85397
355.009	3.50818
355.222	2.34364
355.435	2.50785
355.647	3.41201
355.86	1.50442
356.073	2.14316
356.286	1.8111
356.499	2.91061
356.712	2.66201
356.925	2.61462
357.138	3.21098
357.35	1.31153
357.563	1.90898
357.776	2.40415
357.989	2.05809
358.201	2.69987
358.414	2.40971
358.627	3.31623
358.84	1.86166
359.052	1.28376
359.265	1.22437
359.478	3.18834
359.69	-0.3409
359.903	2.87814
360.116	2.9207
360.328	0.68075
360.541	2.82659
360.753	1.32303
360.966	1.56564
361.179	1.691
361.391	1.57299
361.604	1.08931
361.816	1.62495
362.029	1.3567
362.241	1.2443
362.454	1.49428
362.666	1.19715
362.879	1.99508
363.091	1.66826
363.304	1.24319
363.516	1.98767
363.728	0.84801
363.941	2.41743
364.153	1.58659
364.366	0.12831
364.578	0.97724
364.79	2.26859
365.003	1.94863
365.215	1.47018
365.427	2.38609
365.639	3.05377
365.852	2.10483
366.064	3.69299
366.276	1.7078
366.488	2.35831
366.701	1.66189
366.913	1.8816
367.125	1.4956
367.337	1.4265
367.549	1.44104
367.762	2.00686
367.974	2.0225
368.186	1.38082
368.398	2.99371
368.61	2.62249
368.822	2.70298
369.034	2.06355
369.246	2.66033
369.458	3.97316
369.67	1.24088
369.882	3.71678
370.094	0.22305
370.306	3.43049
370.518	1.65662
370.73	1.38071
370.942	1.33928
371.154	1.76541
371.366	1.47772
371.578	2.25527
371.79	1.29121
372.002	3.07832
372.214	3.54699
372.425	2.20826
372.637	3.23548
372.849	2.33343
373.061	0.09338
373.273	2.32338
373.484	2.30374
373.696	2.75261
373.908	0.0676
374.12	2.79028
374.331	2.50089
374.543	1.18967
374.755	1.12638
374.967	2.00939
375.178	2.69924
375.39	1.6658
375.602	1.86428
375.813	0.93308
376.025	0.89028
376.236	1.93584
376.448	2.07884
376.66	1.32673
376.871	1.44096
377.083	2.7525
377.294	2.86152
377.506	1.3679
377.717	3.00394
377.929	2.03112
378.14	1.22662
378.352	2.35614
378.563	2.23053
378.775	2.941
378.986	1.2737
379.197	2.16793
379.409	1.41137
379.62	2.63784
379.832	2.19251
380.043	1.82757
380.254	2.06323
380.466	0.90138
380.677	4.16912
380.888	3.92582
381.1	4.0006
381.311	3.95539
381.522	1.87369
381.733	4.45929
381.945	1.71786
382.156	2.0997
382.367	1.60089
382.578	4.60326
382.789	4.34194
383.001	1.56173
383.212	3.1069
383.423	3.13853
383.634	2.92311
383.845	2.21671
384.056	1.491
384.267	1.78784
384.478	1.8626
384.69	1.05406
384.901	2.34214
385.112	2.13111
385.323	3.2354
385.534	2.24411
385.745	2.09156
385.956	2.31667
386.167	1.08772
386.378	2.37643
386.588	1.08506
386.799	1.15343
387.01	0.33867
387.221	2.68754
387.432	1.72169
387.643	3.49013
387.854	1.67262
388.065	1.66063
388.275	1.6712
388.486	1.52203
388.697	1.84731
388.908	1.59254
389.119	2.7975
389.329	3.28874
389.54	1.91283
389.751	2.03728
389.962	2.84166
390.172	2.03972
390.383	1.36857
390.594	1.35291
390.804	1.18961
391.015	1.26518
391.226	1.84146
391.436	2.1828
391.647	2.08043
391.858	2.4423
392.068	0.41935
392.279	0.86398
392.489	1.85678
392.7	2.67492
392.91	1.07242
393.121	1.26504
393.331	2.23489
393.542	2.77902
393.752	2.21526
393.963	1.85195
394.173	1.80839
394.384	2.35593
394.594	1.80756
394.804	0.77881
395.015	1.90501
395.225	2.24129
395.436	0.81606
395.646	2.2333
395.856	1.16341
396.067	0.63961
396.277	2.67129
396.487	2.18456
396.697	1.8517
396.908	2.51899
397.118	2.45035
397.328	1.9362
397.538	2.65457
397.749	1.12033
397.959	2.45966
398.169	2.41496
398.379	0.71325
398.589	2.49012
398.8	1.96539
399.01	1.61948
399.22	1.63241
399.43	3.89102
399.64	1.39945
399.85	2.28055
400.06	1.67976
400.27	1.329
400.48	1.89061
400.69	3.10502
400.9	1.3875
401.11	1.21448
401.32	2.58026
401.53	1.33967
401.74	3.16669
401.95	2.49149
402.16	1.06733
402.37	2.26204
402.58	1.34021
402.79	2.28668
403	2.59984
403.209	1.42914
403.419	2.23982
403.629	1.39653
403.839	2.27656
404.049	2.37894
404.258	1.15646
404.468	1.1978
404.678	2.3781
404.888	2.14406
405.097	1.01919
405.307	1.63603
405.517	2.24141
405.727	1.82206
405.936	1.39403
406.146	1.98854
406.356	2.87501
406.565	1.71998
406.775	1.33266
406.984	1.3651
407.194	3.3433
407.404	1.80999
407.613	2.16329
407.823	2.33983
408.032	2.77527
408.242	2.81875
408.451	1.27852
408.661	1.67069
408.87	3.32716
409.08	1.36524
409.289	2.18168
409.499	1.8631
409.708	1.99936
409.918	0.19357
410.127	1.80336
410.336	3.08237
410.546	2.3191
410.755	1.39606
410.964	1.47003
411.174	1.13577
411.383	2.26697
411.592	2.33572
411.802	1.092
412.011	2.6476
412.22	1.82303
412.429	3.04923
412.639	3.02048
412.848	2.88907
413.057	3.12767
413.266	2.87487
413.475	1.9113
413.685	2.70414
413.894	2.64546
414.103	2.86551
414.312	2.51894
414.521	1.86261
414.73	1.96863
414.939	3.39033
415.148	2.40702
415.357	2.19948
415.566	1.60568
415.776	1.67037
415.985	1.50602
416.194	2.50757
416.403	3.03351
416.611	0.76
416.82	1.31312
417.029	1.78729
417.238	1.24365
417.447	0.99163
417.656	1.28592
417.865	1.04445
418.074	1.30822
418.283	1.46542
418.492	2.04166
418.7	2.00653
418.909	2.56925
419.118	1.74972
419.327	1.96902
419.536	1.67418
419.744	1.21301
419.953	2.39464
420.162	2.37015
420.371	1.19973
420.579	1.04548
420.788	2.24855
420.997	2.09771
421.205	2.1913
421.414	1.90049
421.623	1.77434
421.831	1.34614
422.04	2.35357
422.249	1.32372
422.457	2.014
422.666	1.3479
422.874	2.56566
423.083	2.47657
423.291	2.30776
423.5	1.97595
423.708	2.13071
423.917	2.57557
424.125	1.98719
424.334	1.63535
424.542	3.73433
424.751	2.78732
424.959	2.5732
425.167	2.92807
425.376	2.78406
425.584	2.0579
425.793	2.43419
426.001	1.51446
426.209	2.4947
426.418	1.50702
426.626	1.64125
426.834	1.35085
427.042	1.79179
427.251	1.56301
427.459	2.38648
427.667	2.15655
427.875	1.1702
428.084	1.60282
428.292	2.79706
428.5	2.36643
428.708	1.54269
428.916	1.36991
429.124	2.07015
429.333	1.73615
429.541	1.81305
429.749	2.03489
429.957	1.93237
430.165	3.55189
430.373	1.16995
430.581	2.15259
430.789	2.91222
430.997	1.5735
431.205	1.49083
431.413	2.03336
431.621	1.75661
431.829	2.42249
432.037	1.62766
432.245	2.30143
432.453	2.14048
432.661	1.65886
432.869	3.16127
433.076	1.28068
433.284	1.81714
433.492	2.30958
433.7	2.68202
433.908	1.60229
434.116	1.97284
434.323	2.01516
434.531	1.94786
434.739	2.23913
434.947	2.64203
435.154	2.49733
435.362	2.18558
435.57	1.89307
435.778	1.67057
435.985	2.32459
436.193	1.79989
436.401	2.87685
436.608	2.05272
436.816	1.7262
437.023	3.35693
437.231	3.10773
437.439	2.12532
437.646	2.48442
437.854	2.38362
438.061	2.58838
438.269	1.88504
438.476	2.3965
438.684	2.17272
438.891	1.73679
439.099	1.5214
439.306	1.0587
439.514	1.43798
439.721	2.21301
439.929	1.70606
440.136	2.48707
440.343	2.4159
440.551	2.0088
440.758	3.60983
440.965	2.49698
441.173	2.26792
441.38	1.79267
441.587	2.339
441.795	1.75416
442.002	2.26723
442.209	2.37178
442.416	2.62045
442.624	2.46792
442.831	2.42377
443.038	1.80065
443.245	1.48131
443.452	1.89794
443.66	2.73681
443.867	1.65054
444.074	1.8903
444.281	1.66173
444.488	1.85405
444.695	1.99944
444.902	1.77085
445.109	2.50631
445.316	1.84934
445.523	1.9157
445.73	1.69554
445.937	2.42483
446.144	2.70676
446.351	2.68609
446.558	1.78011
446.765	3.06614
446.972	3.16022
447.179	2.25393
447.386	3.39854
447.593	2.03586
447.8	3.30192
448.007	2.1128
448.214	2.19633
448.42	1.79109
448.627	2.852
448.834	2.04413
449.041	2.1553
449.248	2.04483
449.454	2.93479
449.661	3.31129
449.868	2.06997
450.075	1.91651
450.281	1.0984
450.488	1.61557
450.695	1.81834
450.901	1.73339
451.108	2.08859
451.315	2.88988
451.521	2.36831
451.728	2.88806
451.935	1.79565
452.141	2.14984
452.348	2.23879
452.554	2.17602
452.761	1.97311
452.967	3.24542
453.174	2.33931
453.38	2.4549
453.587	1.49549
453.793	2.37604
454	2.92561
454.206	3.73559
454.413	3.23226
454.619	2.62275
454.825	1.98264
455.032	2.76005
455.238	2.97809
455.445	1.61066
455.651	2.53939
455.857	1.164
456.064	2.28097
456.27	2.2015
456.476	2.2345
456.682	1.49831
456.889	2.71664
457.095	2.7642
457.301	4.02277
457.507	2.51648
457.714	2.36905
457.92	2.25411
458.126	1.73483
458.332	2.05268
458.538	1.78762
458.744	1.86821
458.951	1.89635
459.157	3.33141
459.363	2.44053
459.569	2.38515
459.775	3.0801
459.981	2.07372
460.187	2.4898
460.393	3.02349
460.599	3.49327
460.805	2.65882
461.011	2.52052
461.217	3.03317
461.423	3.18986
461.629	2.3075
461.835	3.0073
462.041	2.40366
462.247	3.57709
462.453	2.43985
462.658	2.5401
462.864	3.14565
463.07	2.86926
463.276	2.85985
463.482	2.81393
463.688	3.47301
463.893	2.27041
464.099	2.41178
464.305	3.72011
464.511	2.29965
464.716	2.55862
464.922	3.08383
465.128	2.06273
465.333	3.82968
465.539	3.09665
465.745	2.36495
465.95	2.85873
466.156	4.38607
466.362	3.45288
466.567	2.56798
466.773	2.45633
466.978	3.87126
467.184	2.02575
467.389	1.18778
467.595	3.01362
467.8	2.09196
468.006	3.64603
468.211	3.51305
468.417	1.98497
468.622	3.09809
468.828	3.19691
469.033	2.81725
469.239	4.72104
469.444	2.4077
469.649	3.51932
469.855	2.41881
470.06	2.7516
470.266	2.03317
470.471	3.28762
470.676	3.09516
470.881	1.72368
471.087	3.55712
471.292	4.11609
471.497	1.94889
471.703	2.53252
471.908	2.37358
472.113	2.93821
472.318	3.33319
472.523	2.03933
472.729	3.05919
472.934	3.22728
473.139	2.49326
473.344	3.15412
473.549	3.79715
473.754	2.45884
473.959	4.24819
474.164	2.37292
474.369	2.86216
474.575	3.48722
474.78	2.83462
474.985	2.39296
475.19	1.67689
475.395	2.20191
475.6	2.67156
475.804	3.61035
476.009	2.65212
476.214	2.86802
476.419	2.47572
476.624	1.65502
476.829	2.26799
477.034	3.09719
477.239	2.05765
477.444	3.23641
477.648	3.03236
477.853	3.06911
478.058	2.48897
478.263	2.26124
478.468	2.04469
478.672	2.00635
478.877	3.51895
479.082	3.82833
479.287	3.02287
479.491	2.86692
479.696	1.91272
479.901	3.2555
480.105	3.20239
480.31	2.26737
480.515	2.53749
480.719	4.20652
480.924	2.18323
481.128	1.81224
481.333	2.47724
481.538	2.62388
481.742	2.34815
481.947	2.91303
482.151	3.2395
482.356	2.99362
482.56	3.99516
482.765	3.95042
482.969	4.93925
483.174	5.73953
483.378	6.89568
483.582	6.54747
483.787	7.44085
483.991	7.33712
484.196	7.61145
484.4	7.42855
484.604	7.98742
484.809	6.56201
485.013	6.63024
485.217	5.83009
485.422	5.22143
485.626	4.83286
485.83	4.52706
486.034	4.40291
486.239	4.43209
486.443	4.57944
486.647	4.28637
486.851	5.09993
487.055	5.6182
487.26	4.87222
487.464	5.44386
487.668	4.7711
487.872	4.7524
488.076	5.54708
488.28	4.97369
488.484	4.71784
488.688	4.84252
488.892	4.79763
489.096	4.61816
489.3	4.04803
489.504	3.88383
489.708	3.97359
489.912	4.08373
490.116	3.906
490.32	3.0011
490.524	3.91503
490.728	4.1652
490.932	3.95212
491.136	3.88687
491.34	4.86472
491.544	5.12545
491.748	4.52236
491.951	4.63878
492.155	4.37407
492.359	4.65777
492.563	3.69552
492.767	3.61351
492.97	3.46064
493.174	2.94718
493.378	2.98245
493.582	2.4628
493.785	2.93491
493.989	2.95726
494.193	3.12999
494.396	2.70677
494.6	3.51846
494.804	2.94612
495.007	2.54196
495.211	2.43828
495.414	2.79931
495.618	2.89072
495.822	3.53171
496.025	2.72272
496.229	3.34826
496.432	2.31426
496.636	2.70042
496.839	2.67756
497.043	3.70387
497.246	2.91225
497.45	2.52595
497.653	2.56871
497.856	3.02213
498.06	2.15151
498.263	2.62864
498.467	2.47208
498.67	3.39689
498.873	3.06958
499.077	2.61464
499.28	2.63471
499.483	3.17479
499.686	3.3983
499.89	3.16585
500.093	3.38309
500.296	2.56278
500.499	3.86955
500.703	2.95275
500.906	3.05658
501.109	4.21492
501.312	3.1277
501.515	2.92024
501.719	3.27184
501.922	4.06961
502.125	3.19454
502.328	3.041
502.531	2.31664
502.734	3.15074
502.937	1.81098
503.14	3.10607
503.343	2.32479
503.546	2.7101
503.749	2.5202
503.952	3.31719
504.155	2.28902
504.358	3.41104
504.561	2.93601
504.764	2.31154
504.967	2.91795
505.17	3.03004
505.373	4.13484
505.576	3.10707
505.778	3.40936
505.981	2.76509
506.184	3.82689
506.387	1.96277
506.59	4.17804
506.793	3.78982
506.995	3.35283
507.198	1.92548
507.401	3.04186
507.604	3.28942
507.806	2.19639
508.009	2.43026
508.212	3.18758
508.414	2.53107
508.617	2.21632
508.82	2.77363
509.022	3.51639
509.225	3.20505
509.427	1.87164
509.63	3.72303
509.833	2.82495
510.035	2.7209
510.238	1.98399
510.44	3.56686
510.643	1.59839
510.845	4.3787
511.048	3.31641
511.25	2.65954
511.453	2.69091
511.655	3.29915
511.858	2.62443
512.06	3.38561
512.262	2.87017
512.465	3.42761
512.667	2.49179
512.869	2.35481
513.072	3.13373
513.274	3.53967
513.476	3.35863
513.679	3.58947
513.881	2.37439
514.083	4.05394
514.286	2.57648
514.488	2.6119
514.69	2.49979
514.892	2.18984
515.094	3.3508
515.297	2.71445
515.499	3.15526
515.701	2.46438
515.903	4.0922
516.105	4.11616
516.307	3.50723
516.509	1.94136
516.711	2.15477
516.913	2.95919
517.116	2.66816
517.318	2.56201
517.52	3.41133
517.722	3.08307
517.924	2.05874
518.126	2.99201
518.328	2.34022
518.529	3.1881
518.731	3.89605
518.933	2.45674
519.135	2.7017
519.337	3.54012
519.539	3.17563
519.741	1.87213
519.943	2.77634
520.145	2.76682
520.346	3.34944
520.548	2.84181
520.75	3.29832
520.952	2.71265
521.153	3.08251
521.355	3.27548
521.557	2.29505
521.759	3.1203
521.96	3.03835
522.162	2.33118
522.364	3.89208
522.565	2.38469
522.767	3.51692
522.969	3.87363
523.17	3.26927
523.372	3.33044
523.573	2.62237
523.775	2.73817
523.977	2.25068
524.178	3.94862
524.38	2.36646
524.581	3.23934
524.783	2.43471
524.984	3.16404
525.186	2.80991
525.387	3.30705
525.589	2.92553
525.79	2.68887
525.991	2.40672
526.193	3.26095
526.394	2.138
526.596	3.32393
526.797	3.24291
526.998	2.94741
527.2	2.52905
527.401	4.15106
527.602	4.10431
527.803	5.3547
528.005	5.08521
528.206	5.777
528.407	6.05827
528.608	5.56785
528.81	5.79332
529.011	5.221
529.212	6.35256
529.413	5.57949
529.614	5.1971
529.815	5.27915
530.017	4.85144
530.218	4.24967
530.419	3.56083
530.62	3.70942
530.821	3.59119
531.022	2.52529
531.223	3.69008
531.424	3.56502
531.625	3.46779
531.826	3.42653
532.027	3.39391
532.228	4.38055
532.429	3.7506
532.63	3.63055
532.831	3.9831
533.032	4.03281
533.233	4.54982
533.433	4.3046
533.634	4.49724
533.835	3.81742
534.036	3.55438
534.237	3.71994
534.438	3.22059
534.638	2.63896
534.839	2.79904
535.04	3.28911
535.241	2.77088
535.441	3.90128
535.642	3.14137
535.843	2.35503
536.043	2.55809
536.244	2.76892
536.445	2.73557
536.645	3.7464
536.846	3.1457
537.047	3.85565
537.247	2.53629
537.448	2.90306
537.648	2.91884
537.849	2.977
538.049	2.88109
538.25	3.61811
538.451	3.37566
538.651	2.53384
538.851	3.34157
539.052	3.80708
539.252	3.61397
539.453	3.01767
539.653	2.98078
539.854	2.85412
540.054	2.9166
540.254	3.78734
540.455	4.14649
540.655	3.37301
540.855	4.12289
541.056	4.69256
541.256	4.17276
541.456	5.13171
541.657	4.13622
541.857	5.40576
542.057	3.76476
542.257	3.76158
542.458	4.42559
542.658	4.53006
542.858	3.09553
543.058	4.11708
543.258	3.7199
543.458	2.55152
543.659	2.38304
543.859	3.42204
544.059	3.35467
544.259	2.89413
544.459	3.59132
544.659	2.76767
544.859	3.37559
545.059	2.6359
545.259	3.43928
545.459	3.22448
545.659	3.54028
545.859	3.02846
546.059	3.08105
546.259	2.5171
546.459	1.97473
546.659	2.33636
546.859	3.37441
547.059	3.15448
547.258	3.42426
547.458	3.30311
547.658	2.38965
547.858	2.43667
548.058	3.42853
548.258	3.14317
548.457	2.59106
548.657	5.30503
548.857	3.24666
549.057	4.05559
549.256	3.75922
549.456	3.30517
549.656	2.00277
549.855	5.14543
550.055	3.27344
550.255	4.94425
550.454	3.71122
550.654	4.27755
550.853	4.62216
551.053	4.31163
551.253	3.85962
551.452	3.77058
551.652	2.51069
551.851	2.08961
552.051	3.10979
552.25	2.95092
552.45	2.7391
552.649	3.0835
552.849	2.61512
553.048	3.50602
553.248	3.71487
553.447	2.61074
553.646	4.14713
553.846	4.84378
554.045	4.44396
554.244	2.77481
554.444	5.00197
554.643	3.03357
554.842	4.76696
555.042	5.64739
555.241	3.18197
555.44	2.8963
555.64	3.38211
555.839	4.93895
556.038	4.16084
556.237	3.37276
556.436	3.40285
556.636	4.03739
556.835	2.87711
557.034	5.07082
557.233	3.64168
557.432	2.66437
557.631	4.82955
557.83	3.60073
558.029	3.37928
558.228	3.51952
558.427	2.82163
558.626	4.09492
558.825	2.93192
559.024	3.99685
559.223	5.36894
559.422	3.44732
559.621	4.21435
559.82	1.52502
560.019	3.57994
560.218	3.28904
560.417	1.20786
560.616	3.26959
560.815	6.46568
561.014	2.24697
561.212	4.64562
561.411	3.72576
561.61	2.20218
561.809	3.41026
562.008	5.02059
562.206	3.66512
562.405	4.14064
562.604	3.61511
562.803	3.91347
563.001	3.53594
563.2	2.46585
563.399	4.17128
563.597	2.68393
563.796	3.90028
563.995	2.3827
564.193	3.97554
564.392	2.97057
564.59	5.6215
564.789	1.84421
564.988	3.08968
565.186	3.43954
565.385	3.03039
565.583	2.86263
565.782	3.21333
565.98	2.93566
566.179	3.1053
566.377	2.14522
566.575	2.59074
566.774	4.21633
566.972	4.18584
567.171	5.27489
567.369	4.82012
567.567	3.46177
567.766	3.84712
567.964	1.72723
568.162	4.05963
568.361	4.60757
568.559	3.54713
568.757	4.0813
568.956	3.77548
569.154	3.54736
569.352	4.34093
569.55	3.59597
569.748	3.43449
569.947	2.56348
570.145	2.81763
570.343	2.54092
570.541	4.77266
570.739	2.16831
570.937	3.44729
571.135	3.5423
571.333	4.72833
571.532	4.67804
571.73	3.50591
571.928	4.1835
572.126	3.76763
572.324	2.91643
572.522	4.57423
572.72	5.55873
572.918	3.26007
573.116	3.65131
573.313	3.43017
573.511	3.17689
573.709	3.20332
573.907	4.04498
574.105	3.19877
574.303	1.95035
574.501	2.17799
574.699	3.41632
574.896	3.46086
575.094	3.91298
575.292	2.26239
575.49	4.14494
575.688	3.3396
575.885	4.61041
576.083	5.2225
576.281	3.80193
576.478	2.96615
576.676	4.27973
576.874	2.55487
577.071	3.30318
577.269	5.98428
577.467	3.29894
577.664	3.82682
577.862	4.46614
578.059	3.05876
578.257	4.78854
578.455	3.90071
578.652	3.75428
578.85	2.08741
579.047	4.17484
579.245	4.14925
579.442	3.8741
579.64	3.86145
579.837	2.16504
580.034	6.52109
580.232	3.58065
580.429	2.97118
580.627	4.68307
580.824	5.21304
581.021	4.5067
581.219	3.87727
581.416	3.26041
581.613	5.44824
581.811	5.1962
582.008	3.2757
582.205	4.72769
582.402	4.57159
582.6	6.49114
582.797	4.38065
582.994	4.83222
583.191	5.00052
583.388	4.51398
583.586	5.04353
583.783	5.71497
583.98	3.16282
584.177	4.25651
584.374	0.82592
584.571	4.14
584.768	4.18312
584.965	3.70411
585.162	5.14425
585.359	6.1196
585.556	4.25802
585.753	4.80545
585.95	2.85459
586.147	3.73403
586.344	4.82506
586.541	4.19888
586.738	3.09987
586.935	4.21547
587.132	3.27846
587.329	5.11192
587.526	4.03339
587.722	9.61895
587.919	2.83116
588.116	4.4343
588.313	5.91614
588.51	6.7
588.706	3.92218
588.903	4.7571
589.1	5.13675
589.297	7.40989
589.493	3.89388
589.69	4.52917
589.887	3.41001
590.083	2.85713
590.28	3.30267
590.477	5.42942
590.673	5.01803
590.87	5.81046
591.067	3.72839
591.263	5.0107
591.46	4.9101
591.656	4.18947
591.853	6.28437
592.049	3.52802
592.246	3.59905
592.442	5.81756
592.639	5.63679
592.835	2.81002
593.032	4.64306
593.228	2.7364
593.425	2.30662
593.621	2.81402
593.817	4.34575
594.014	3.52841
594.21	4.13356
594.406	5.29741
594.603	4.30171
594.799	3.47588
594.995	1.6184
595.192	5.15179
595.388	3.48732
595.584	3.24974
595.78	2.27907
595.977	6.28541
596.173	5.38673
596.369	3.39678
596.565	2.68532
596.761	2.03499
596.957	4.81679
597.154	2.6229
597.35	3.02858
597.546	2.9583
597.742	4.22846
597.938	4.09429
598.134	2.99477
598.33	4.04746
598.526	6.11996
598.722	5.05261
598.918	6.342
599.114	5.18869
599.31	3.39493
599.506	4.40807
599.702	3.7193
599.898	4.89911
600.094	5.87849
600.29	5.35513
600.485	5.42951
600.681	4.19283
600.877	6.5722
601.073	4.38395
601.269	6.71352
601.465	5.85503
601.66	3.27351
601.856	2.13094
602.052	6.35687
602.248	3.80068
602.443	1.64789
602.639	2.64744
602.835	2.92798
603.03	3.22555
603.226	5.05325
603.422	2.78601
603.617	3.54123
603.813	3.41506
604.009	3.13632
604.204	4.97037
604.4	1.83634
604.595	4.57297
604.791	2.38718
604.986	3.91127
605.182	2.66004
605.377	3.22151
605.573	3.00048
605.768	3.81167
605.964	4.6383
606.159	4.75627
606.355	5.729
606.55	4.0397
606.746	5.32874
606.941	4.41898
607.136	6.7244
607.332	8.03104
607.527	2.9116
607.722	4.83059
607.918	4.37997
608.113	3.03418
608.308	4.7183
608.503	4.56118
608.699	4.35129
608.894	4.40958
609.089	2.80967
609.284	4.13621
609.479	3.32928
609.675	4.49576
609.87	3.36477
610.065	4.33602
610.26	5.02788
610.455	5.11829
610.65	4.02199
610.845	4.4673
611.04	5.53619
611.235	4.41552
611.43	4.11763
611.625	2.88707
611.82	6.29886
612.015	3.36056
612.21	6.9645
612.405	2.67292
612.6	7.65018
612.795	6.90045
612.99	5.98045
613.185	3.21345
613.38	3.78082
613.575	5.36243
613.77	8.66183
613.965	2.80162
614.159	3.75333
614.354	6.86695
614.549	6.84331
614.744	6.11167
614.938	3.68237
615.133	3.36968
615.328	6.54252
615.523	6.8147
615.717	9.27505
615.912	4.53977
616.107	5.05482
616.301	4.48926
616.496	3.90341
616.691	7.78553
616.885	6.09808
617.08	8.88444
617.274	7.1541
617.469	8.35767
617.664	6.12267
617.858	4.18464
618.053	5.75782
618.247	4.68806
618.442	1.61875
618.636	6.98603
618.831	4.87789
619.025	4.45743
619.219	9.57568
619.414	0.28597
619.608	5.29048
619.803	4.13656
619.997	8.58592
620.191	7.14513
620.386	5.52793
620.58	5.78455
620.774	2.87472
620.969	2.90204
621.163	5.18882
621.357	3.26179
621.551	4.61056
621.746	5.7207
621.94	5.58175
622.134	11.24531
622.328	8.64276
622.522	3.30728
622.716	6.70689
622.911	7.0999
623.105	6.71235
623.299	5.73098
623.493	10.76426
623.687	4.05545
623.881	4.8111
624.075	6.67202
624.269	6.94698
624.463	2.35991
624.657	2.75753
624.851	6.30215
625.045	6.49091
625.239	6.54729
625.433	4.15753
625.627	7.60134
625.821	4.1737
626.015	3.52671
626.209	4.63486
626.403	2.71607
626.596	5.52016
626.79	5.95942
626.984	2.73809
627.178	5.44045
627.372	5.41862
627.565	6.0071
627.759	2.63276
627.953	2.92
628.147	5.90342
628.34	6.29588
628.534	8.5746
628.728	4.91342
628.921	7.04189
629.115	6.88587
629.309	6.45467
629.502	7.07023
629.696	5.83462
629.89	5.41298
630.083	5.63963
630.277	6.67718
630.47	8.80047
630.664	4.88963
630.857	3.12122
631.051	7.40265
631.244	7.59939
631.438	7.57101
631.631	4.60231
631.825	7.49185
632.018	6.95675
632.212	8.74935
632.405	7.87164
632.598	4.38159
632.792	6.21246
632.985	1.42166
633.178	4.67356
633.372	5.83546
633.565	5.21275
633.758	7.95272
633.952	4.06762
634.145	4.38303
634.338	4.79296
634.531	4.87206
634.724	4.3841
634.918	6.21575
635.111	5.38984
635.304	5.56229
635.497	9.88949
635.69	6.28239
635.883	8.01029
636.077	3.69591
636.27	6.93198
636.463	6.21916
636.656	6.95981
636.849	4.96887
637.042	6.28961
637.235	9.35497
637.428	7.66651
637.621	8.12772
637.814	9.29432
638.007	9.26877
638.2	9.56168
638.393	10.90398
638.586	3.95583
638.778	5.42434
638.971	7.00495
639.164	9.81996
639.357	7.5099
639.55	9.09216
639.743	8.25906
639.935	8.17747
640.128	10.79353
640.321	8.092
640.514	7.19824
640.707	12.64996
640.899	8.5508
641.092	3.73725
641.285	22.08842
641.477	2.5883
641.67	11.42716
641.863	9.37997
642.055	7.67502
642.248	7.26981
642.441	6.09464
642.633	8.30637
642.826	9.70517
643.018	9.75739
643.211	10.98712
643.403	10.8788
643.596	11.31286
643.788	11.32581
643.981	6.18919
644.173	8.94547
644.366	6.60828
644.558	4.29648
644.751	9.41215
644.943	4.13558
645.135	11.68062
645.328	11.83664
645.52	9.08989
645.712	9.63129
645.905	15.03362
646.097	5.41192
646.289	9.08645
646.482	11.99101
646.674	6.44503
646.866	10.13892
647.058	8.47068
647.251	5.26257
647.443	6.49879
647.635	7.14744
647.827	5.25262
648.019	4.98264
648.211	8.16813
648.404	7.83952
648.596	11.17217
648.788	8.30072
648.98	8.64715
649.172	8.75144
649.364	8.35666
649.556	3.86684
649.748	13.21359
649.94	5.41214
650.132	8.8632
650.324	5.8135
650.516	6.22528
650.708	10.60178
650.9	4.82284
651.092	6.62312
651.284	3.80415
651.476	4.911
651.667	9.23522
651.859	10.71953
652.051	7.39404
652.243	8.50142
652.435	6.49384
652.627	8.43975
652.818	8.75785
653.01	3.91486
653.202	5.95087
653.394	6.64594
653.585	8.90479
653.777	19.23435
653.969	11.64838
654.16	11.27512
654.352	5.9807
654.544	8.15804
654.735	11.35093
654.927	8.19798
655.118	11.57205
655.31	10.52714
655.502	10.44655
655.693	6.4257
655.885	9.27174
656.076	12.06453
656.268	8.88924
656.459	11.70331
656.651	11.95612
656.842	6.76119
657.034	6.49371
657.225	9.87056
657.416	11.53941
657.608	11.15436
657.799	7.27694
657.99	9.91281
658.182	5.75164
658.373	6.17995
658.564	9.36297
658.756	7.48736
658.947	7.06862
659.138	5.26578
659.33	6.12818
659.521	5.45466
659.712	6.82729
659.903	6.7376
660.094	5.7211
660.286	3.83456
660.477	12.45829
660.668	8.88642
660.859	8.19306
661.05	4.98503
661.241	9.48204
661.432	9.31124
661.623	7.47375
661.814	7.52108
662.006	4.11869
662.197	9.81775
662.388	11.39284
662.579	9.35273
662.77	12.51977
662.96	16.33974
663.151	11.36885
663.342	4.50677
663.533	9.67261
663.724	8.35098
663.915	13.45462
664.106	8.53929
664.297	14.29019
664.488	11.01201
664.678	8.20695
664.869	10.60716
665.06	11.69977
665.251	10.13892
665.442	10.60416
665.632	7.6308
665.823	15.05098
666.014	1.70883
666.204	10.81328
666.395	13.34351
666.586	17.29965
666.776	11.93296
666.967	14.86136
667.158	9.45597
667.348	14.09649
667.539	6.08532
667.729	11.40825
667.92	6.80975
668.111	12.13241
668.301	11.07446
668.492	8.44733
668.682	9.12183
668.873	8.47152
669.063	6.40429
669.253	9.16012
669.444	12.38763
669.634	8.46315
669.825	14.94362
670.015	12.36241
670.206	7.24493
670.396	16.26074
670.586	9.59947
670.777	11.2467
670.967	3.51785
671.157	10.47109
671.347	7.90492
671.538	14.15622
671.728	11.42762
671.918	15.6346
672.108	13.47688
672.299	10.16955
672.489	11.293
672.679	8.28001
672.869	12.35031
673.059	15.46682
673.249	11.91043
673.44	7.85645
673.63	9.68544
673.82	12.7765
674.01	7.74672
674.2	12.10944
674.39	19.71048
674.58	12.16257
674.77	10.82824
674.96	10.3094
675.15	23.51875
675.34	12.93682
675.53	11.00289
675.72	8.93894
675.91	6.06237
676.099	15.79933
676.289	17.65811
676.479	13.73918
676.669	9.5447
676.859	12.60523
677.049	6.81254
677.238	10.48498
677.428	15.97929
677.618	11.66131
677.808	13.52759
677.997	11.98996
678.187	6.56209
678.377	9.94384
678.567	8.04444
678.756	8.62514
678.946	8.74331
679.136	5.07677
679.325	7.67473
679.515	6.66723
679.704	5.53094
679.894	11.26771
680.084	10.0031
680.273	13.37025
680.463	6.72829
680.652	6.97615
680.842	9.39428
681.031	12.04234
681.221	7.18683
681.41	11.13141
681.6	9.5325
681.789	11.92627
681.978	13.62481
682.168	11.00401
682.357	12.10227
682.547	12.81885
682.736	11.91884
682.925	15.04504
683.115	14.78991
683.304	13.82502
683.493	12.10541
683.682	12.42374
683.872	11.99551
684.061	15.61976
684.25	13.26901
684.439	17.3639
684.629	12.0803
684.818	22.49895
685.007	12.10722
685.196	10.07633
685.385	16.75496
685.574	13.8207
685.763	12.08695
685.952	12.69954
686.142	7.87669
686.331	17.86085
686.52	5.55463
686.709	16.61537
686.898	17.15713
687.087	14.17188
687.276	17.81542
687.465	15.43773
687.654	9.92974
687.842	17.56757
688.031	6.89918
688.22	16.3493
688.409	12.43173
688.598	12.71085
688.787	21.82942
688.976	12.79521
689.165	19.10743
689.353	11.00819
689.542	14.67739
689.731	15.41612
689.92	20.41448
690.108	16.62927
690.297	11.67344
690.486	13.1605
690.675	15.70084
690.863	19.23808
691.052	19.73796
691.241	15.10185
691.429	14.1255
691.618	19.23209
691.806	7.8598
691.995	13.09952
692.184	13.09984
692.372	11.83271
692.561	13.68925
692.749	13.66983
692.938	23.30304
693.126	16.35842
693.315	12.99915
693.503	15.84848
693.692	16.49058
693.88	18.17999
694.068	23.94927
694.257	14.07774
694.445	14.82819
694.634	6.20008
694.822	18.69605
695.01	19.70085
695.199	19.40666
695.387	20.70465
695.575	19.17679
695.763	14.36833
695.952	12.86892
696.14	7.70431
696.328	11.74081
696.516	14.41954
696.705	14.8757
696.893	15.12282
697.081	6.83618
697.269	15.98915
697.457	8.95078
697.645	7.64553
697.833	14.92766
698.021	8.82325
698.21	9.39229
698.398	10.89643
698.586	7.28964
698.774	6.6311
698.962	9.9024
699.15	7.46342
699.338	5.92987
699.526	12.83778
699.714	9.2309
699.901	9.38702
700.089	15.87985
700.277	9.71317
700.465	11.99625
700.653	15.91751
700.841	15.53545
701.029	10.77627
701.217	18.42856
701.404	14.44523
701.592	20.5134
701.78	22.89586
701.968	12.03373
702.155	14.16724
702.343	8.87854
702.531	19.86844
702.718	16.77675
702.906	13.71209
703.094	11.65846
703.281	21.03871
703.469	13.77003
703.657	19.52076
703.844	30.35191
704.032	21.74905
704.219	13.44926
704.407	17.28137
704.595	21.8559
704.782	16.14849
704.97	14.47755
705.157	13.81051
705.345	23.18157
705.532	28.31697
705.719	17.93618
705.907	23.01658
706.094	16.51948
706.282	24.38067
706.469	13.89743
706.656	16.47842
706.844	15.73203
707.031	21.85481
707.218	16.99959
707.406	23.91709
707.593	20.25213
707.78	19.43643
707.968	15.84871
708.155	12.3561
708.342	19.77573
708.529	19.48847
708.716	17.16531
708.904	25.25191
709.091	20.49024
709.278	11.30479
709.465	24.02741
709.652	26.59819
709.839	24.0272
710.026	19.02782
710.213	9.40666
710.4	18.73006
710.587	21.24514
710.774	22.9769
710.961	22.95622
711.148	18.32239
711.335	23.33968
711.522	16.97232
711.709	17.48166
711.896	28.63859
712.083	23.44698
712.27	13.21368
712.457	19.24124
712.644	10.50151
712.831	28.35038
713.017	19.64426
713.204	22.18974
713.391	14.15672
713.578	24.46565
713.765	25.29249
713.951	22.02056
714.138	35.78275
714.325	22.29715
714.512	18.4602
714.698	15.72513
714.885	26.42672
715.072	20.73346
715.258	19.96746
715.445	15.97449
715.631	25.55447
715.818	6.40254
716.005	16.04101
716.191	21.76523
716.378	17.46816
716.564	23.97116
716.751	13.51973
716.937	16.50347
717.124	25.96185
717.31	16.24831
717.497	28.43903
717.683	16.07859
717.869	34.65692
718.056	16.71899
718.242	23.18305
718.429	20.59628
718.615	13.81082
718.801	20.61465
718.988	26.01203
719.174	23.30932
719.36	19.44112
719.547	27.64285
719.733	22.86523
719.919	22.9472
720.105	26.24352
720.291	20.23233
720.478	22.12292
720.664	19.67583
720.85	17.89244
721.036	40.2573
721.222	31.70627
721.408	21.274
721.595	35.26153
721.781	32.35267
721.967	28.69537
722.153	32.48892
722.339	26.69968
722.525	25.45656
722.711	15.32196
722.897	13.96473
723.083	19.33206
723.269	29.38985
723.455	38.52299
723.641	42.2557
723.827	24.27486
724.012	25.54107
724.198	20.26521
724.384	30.92801
724.57	25.58722
724.756	14.70798
724.942	9.14123
725.127	29.83353
725.313	33.74152
725.499	31.98695
725.685	36.59118
725.87	25.63976
726.056	18.15151
726.242	32.72963
726.428	14.56871
726.613	29.13594
726.799	21.53905
726.985	15.92715
727.17	13.24592
727.356	33.99046
727.541	17.40645
727.727	22.99407
727.913	27.64862
728.098	20.4379
728.284	28.21648
728.469	14.80228
728.655	17.90013
728.84	28.86817
729.026	28.11354
729.211	29.92208
729.397	24.95439
729.582	28.58547
729.767	21.75113
729.953	25.39973
730.138	29.445
730.323	9.3096
730.509	15.22801
730.694	34.82254
730.879	26.85929
731.065	25.8413
731.25	38.73815
731.435	27.06534
731.621	14.23749
731.806	20.52023
731.991	26.17574
732.176	14.14197
732.361	32.5346
732.547	24.8056
732.732	12.91333
732.917	39.56666
733.102	15.95312
733.287	18.91709
733.472	23.65653
733.657	24.52477
733.842	13.50166
734.027	22.29171
734.212	22.3464
734.397	19.53506
734.582	24.97998
734.767	30.63571
734.952	35.6423
735.137	8.69821
735.322	36.21227
735.507	26.92214
735.692	27.90484
735.877	43.54867
736.062	38.53836
736.247	27.69223
736.431	24.81983
736.616	36.27378
736.801	29.87407
736.986	26.12328
737.171	18.53765
737.355	14.42472
737.54	33.96183
737.725	24.15497
737.909	48.9638
738.094	21.54504
738.279	30.81848
738.463	23.63695
738.648	31.63038
738.833	29.18855
739.017	39.77793
739.202	24.46216
739.386	26.07635
739.571	18.54198
739.756	32.42353
739.94	27.18648
740.125	32.8674
740.309	20.03172
740.494	32.76313
740.678	28.10071
740.863	30.94805
741.047	29.09003
741.231	35.9162
741.416	20.04878
741.6	39.41207
741.785	21.59819
741.969	32.87034
742.153	36.79486
742.338	9.91589
742.522	26.27718
742.706	34.54911
742.89	16.46318
743.075	28.72176
743.259	39.80408
743.443	34.45052
743.627	35.76168
743.812	47.34268
743.996	7.7801
744.18	27.35859
744.364	23.79122
744.548	50.25101
744.732	26.05335
744.916	33.62416
745.1	32.78136
745.285	25.64716
745.469	32.49679
745.653	45.85285
745.837	18.20572
746.021	50.19985
746.205	37.64739
746.389	29.84482
746.573	25.39002
746.757	42.23339
746.94	23.54596
747.124	39.79247
747.308	18.51572
747.492	38.4887
747.676	23.03156
747.86	47.3898
748.044	25.49495
748.227	14.25446
748.411	59.4314
748.595	32.29485
748.779	20.91204
748.963	32.38351
749.146	28.86008
749.33	23.56915
749.514	19.45794
749.697	40.9488
749.881	23.34441
750.065	19.93657
750.248	29.66724
750.432	50.58441
750.616	28.70042
750.799	19.26013
750.983	47.09933
751.166	55.74127
751.35	17.92252
751.533	34.56486
751.717	41.45925
751.9	43.60702
752.084	26.06774
752.267	20.60283
752.451	23.27194
752.634	29.29028
752.818	34.06201
753.001	37.09317
753.184	38.83991
753.368	33.15857
753.551	1.66101
753.734	22.87153
753.918	47.50472
754.101	22.59506
754.284	35.77986
754.467	25.73749
754.651	23.38392
754.834	22.14447
755.017	39.50287
755.2	40.47373
755.384	19.67039
755.567	37.40317
755.75	41.06114
755.933	26.24
756.116	31.46178
756.299	25.2993
756.482	22.9224
756.665	35.01724
756.848	29.52006
757.032	34.57109
757.215	17.70409
757.398	22.90057
757.581	23.07358
757.764	57.67456
757.947	29.43864
758.129	44.07712
758.312	3.60153
758.495	28.46902
758.678	30.03692
758.861	27.49177
759.044	50.87492
759.227	22.25552
759.41	22.61147
759.592	36.05836
759.775	28.8422
759.958	40.4189
760.141	18.01677
760.324	53.79277
760.506	43.69965
760.689	39.30148
760.872	55.24551
761.054	34.52281
761.237	26.5911
761.42	35.06556
761.602	39.52128
761.785	33.69846
761.968	39.32017
762.15	48.64897
762.333	27.37181
762.515	34.31151
762.698	23.61084
762.88	35.63959
763.063	32.00783
763.245	35.53556
763.428	20.75461
763.61	23.47294
763.793	16.38942
763.975	28.69451
764.158	24.16805
764.34	23.23775
764.522	19.02774
764.705	23.40102
764.887	41.10367
765.069	14.97645
765.252	35.87498
765.434	37.63461
765.616	28.85902
765.799	23.30994
765.981	38.37162
766.163	19.02493
766.345	39.24239
766.528	24.07538
766.71	7.0637
766.892	35.22431
767.074	42.87486
767.256	26.84292
767.438	50.72807
767.62	33.94316
767.802	54.53631
767.985	41.6792
768.167	55.07808
768.349	25.40689
768.531	41.21416
768.713	36.26681
768.895	46.58419
769.077	39.14556
769.259	61.17005
769.441	93.20337
769.623	46.53651
769.804	53.19228
769.986	52.44711
770.168	67.95318
770.35	80.57648
770.532	57.84324
770.714	62.39072
770.896	63.91546
771.077	23.97914
771.259	64.09266
771.441	52.5767
771.623	73.36045
771.804	92.9389
771.986	23.95643
772.168	40.77697
772.35	65.76771
772.531	92.1397
772.713	51.86499
772.894	73.8601
773.076	50.28155
773.258	39.925
773.439	67.18638
773.621	78.71156
773.802	31.42458
773.984	43.94472
774.166	56.76836
774.347	78.02031
774.529	68.86973
774.71	18.83553
774.891	44.51591
775.073	45.10166
775.254	78.61286
775.436	38.83685
775.617	82.40937
775.799	44.67092
775.98	77.53048
776.161	83.86432
776.343	80.80017
776.524	48.42207
776.705	51.10479
776.886	24.9931
777.068	55.07915
777.249	97.08319
777.43	88.1681
777.611	33.6223
777.793	47.33466
777.974	77.99937
778.155	46.95737
778.336	40.84542
778.517	90.51575
778.698	40.18841
778.879	17.9229
779.061	9.0103
779.242	63.42186
779.423	60.9233
779.604	49.58318
779.785	51.5317
779.966	60.60615
780.147	70.11129
780.328	74.00165
780.509	105.16392
780.69	62.324
780.871	42.451
781.051	27.42643
781.232	56.8365
781.413	61.20932
781.594	48.9019
781.775	44.73662
781.956	39.88531
782.137	20.76584
782.317	46.56059
782.498	61.89451
782.679	57.67235
782.86	55.39047
783.04	37.84487
783.221	58.38832
783.402	91.76127
783.583	54.78087
783.763	65.67925
783.944	44.25893
784.124	28.0511
784.305	83.83921
784.486	65.58439
784.666	54.27483
784.847	24.87871
785.027	105.3257
785.208	37.69601
785.388	40.06037
785.569	42.33334
785.749	45.01111
785.93	42.32114
786.11	28.12809
786.291	58.53896
786.471	57.48375
786.652	70.73462
786.832	48.30566
787.012	59.73873
787.193	29.11423
787.373	52.83541
787.553	45.37427
787.734	55.42009
787.914	44.17133
788.094	60.20369
788.275	57.0583
788.455	43.41253
788.635	29.98655
788.815	54.72705
788.995	31.77857
789.176	27.3333
789.356	37.07532
789.536	48.46649
789.716	63.51189
789.896	38.00347
790.076	42.02547
790.256	56.53985
790.436	12.96899
790.616	37.14999
790.796	57.3322
790.976	46.32139
791.156	40.4129
791.336	65.08456
791.516	58.91723
791.696	48.51062
791.876	26.89738
792.056	56.35379
792.236	67.08142
792.416	68.77395
792.596	64.5332
792.776	59.77271
792.956	63.04087
793.135	81.17624
793.315	31.33255
793.495	75.43397
793.675	63.38311
793.854	71.73953
794.034	69.7094
794.214	30.405
794.394	64.72197
794.573	74.34235
794.753	54.64952
794.933	37.28307
795.112	58.09963
795.292	66.35516
795.472	85.96163
795.651	29.13907
795.831	52.35857
796.01	44.39828
796.19	46.93037
796.369	45.47792
796.549	60.82718
796.728	48.94407
796.908	29.32723
797.087	33.00735
797.267	50.21161
797.446	33.34173
797.626	58.33163
797.805	58.81354
797.984	37.38461
798.164	61.06649
798.343	36.79149
798.522	57.11089
798.702	53.50288
798.881	29.83749
799.06	48.6632
799.239	19.42593
799.419	32.72783
799.598	77.90222
799.777	64.18107
799.956	73.1885
800.136	46.08284
800.315	36.62718
800.494	54.83423
800.673	69.75932
800.852	63.11362
801.031	69.52879
801.21	66.11828
801.389	44.41491
801.568	56.40125
801.747	88.30029
801.926	53.20748
802.105	81.3209
802.284	40.93691
802.463	80.18754
802.642	60.89899
802.821	55.20096
803	76.0246
803.179	71.23379
803.358	80.1497
803.537	39.69251
803.716	60.29768
803.895	41.57314
804.073	54.46426
804.252	40.91949
804.431	59.03082
804.61	53.05393
804.789	75.13729
804.967	45.93283
805.146	41.33962
805.325	92.20678
805.503	62.54711
805.682	29.64618
805.861	101.10978
806.039	75.63304
806.218	37.75366
806.397	59.91706
806.575	54.19828
806.754	59.00635
806.932	38.39549
807.111	85.45148
807.289	68.97272
807.468	55.51417
807.646	76.5546
807.825	63.41952
808.003	60.09115
808.182	72.89197
808.36	57.81563
808.539	39.88601
808.717	86.11301
808.895	41.23423
809.074	58.41007
809.252	53.81342
809.43	68.24773
809.609	81.65249
809.787	85.96603
809.965	50.97053
810.144	51.81596
810.322	45.7409
810.5	65.21056
810.678	53.19798
810.856	101.49415
811.035	78.14413
811.213	73.15651
811.391	83.88461
811.569	59.6096
811.747	119.136
811.925	82.52895
812.103	41.43574
812.281	53.50786
812.459	102.50178
812.637	96.59137
812.816	79.19997
812.994	98.6204
813.171	75.27609
813.349	73.15703
813.527	91.66767
813.705	90.70543
813.883	102.33929
814.061	79.66207
814.239	105.01634
814.417	111.07298
814.595	73.44682
814.773	65.73389
814.95	62.46316
815.128	67.8064
815.306	59.56959
815.484	59.19292
815.662	45.16688
815.839	37.16707
816.017	48.94859
816.195	85.1267
816.372	54.49578
816.55	78.77012
816.728	91.46707
816.905	53.19125
817.083	97.04336
817.261	55.76809
817.438	111.94087
817.616	100.31418
817.793	50.68185
817.971	76.25075
818.148	73.5606
818.326	91.05589
818.503	71.02012
818.681	90.81927
818.858	48.52003
819.036	60.34999
819.213	63.2505
819.391	44.28692
819.568	41.20129
819.745	40.04941
819.923	66.89867
820.1	46.88818
820.277	41.27013
820.455	48.13438
820.632	49.22733
820.809	50.23476
820.986	29.24457
821.164	22.34953
821.341	19.88168
821.518	27.48505
821.695	18.25299
821.872	16.05515
822.05	14.04433
822.227	8.96641
822.404	10.46845
822.581	13.91763
822.758	9.88923
822.935	10.50422
823.112	12.8339
823.289	8.88098
823.466	13.33638
823.643	12.55336
823.82	17.57469
823.997	15.83853
824.174	19.78479
824.351	29.78097
824.528	27.99823
824.705	23.85796
824.882	28.37879
825.059	38.35397
825.236	24.24611
825.412	25.743
825.589	33.89743
825.766	47.85032
825.943	27.99153
826.12	33.76607
826.296	20.37307
826.473	27.45903
826.65	27.52624
826.827	35.14201
827.003	22.11586
827.18	23.02866
827.357	28.25279
827.533	24.5339
827.71	10.99191
827.887	21.67601
828.063	26.69158
828.24	22.01544
828.416	33.86449
828.593	27.29738
828.769	40.77662
828.946	49.59881
829.122	50.43879
829.299	52.34638
829.475	24.60871
829.652	48.05958
829.828	81.45974
830.005	53.08371
830.181	64.1092
830.357	42.56167
830.534	67.73386
830.71	49.94281
830.886	69.45747
831.063	60.69579
831.239	87.67053
831.415	36.81831
831.592	87.23185
831.768	55.18462
831.944	39.25894
832.12	81.29797
832.296	74.89996
832.473	64.76056
832.649	44.13178
832.825	61.0689
833.001	33.91844
833.177	52.17705
833.353	44.82389
833.529	23.42123
833.705	36.32736
833.881	25.19214
834.058	24.59624
834.234	27.87269
834.41	28.58262
834.586	22.18092
834.761	27.66074
834.937	31.85673
835.113	34.98131
835.289	31.17656
835.465	40.89869
835.641	34.25063
835.817	38.85792
835.993	75.39232
836.169	34.3239
836.344	52.60798
836.52	68.68805
836.696	69.42018
836.872	43.00528
837.048	137.34915
837.223	45.45562
837.399	109.42113
837.575	81.16245
837.75	76.89761
837.926	111.58939
838.102	176.05013
838.277	131.32036
838.453	164.71797
838.628	153.84098
838.804	57.05217
838.98	154.87937
839.155	76.90764
839.331	102.51896
839.506	76.72298
839.682	69.83508
839.857	90.55979
840.033	105.12573
840.208	46.27351
840.384	23.11831
840.559	51.53629
840.734	85.27077
840.91	120.39787
841.085	72.40972
841.26	75.50416
841.436	66.1094
841.611	67.06604
841.786	104.35746
841.962	147.08512
842.137	92.46684
842.312	50.67009
842.487	75.13169
842.663	65.08586
842.838	75.09466
843.013	250.5082
843.188	133.57658
843.363	110.40559
843.538	229.92656
843.714	212.736
843.889	228.20017
844.064	216.89518
844.239	194.52101
844.414	273.14685
844.589	148.50447
844.764	255.77876
844.939	252.52189
845.114	293.86609
845.289	311.96738
845.464	380.31844
845.639	268.4284
845.814	121.7846
845.989	172.35122
846.163	197.96393
846.338	198.3609
846.513	301.57247
846.688	209.98634
846.863	219.12814
847.038	167.55839
847.212	167.4273
847.387	200.78028
847.562	207.23545
847.737	238.58484
847.911	132.15422
848.086	130.11211
848.261	349.96424
848.435	194.7939
848.61	304.25579
848.785	119.26136
848.959	267.6406
849.134	337.54236
849.308	432.05933
849.483	198.72924
849.658	322.62806
849.832	171.92038
850.007	147.85054
850.181	499.03929
850.356	165.50947
850.53	344.14937
850.705	152.68281
850.879	76.85927
851.053	201.28018
851.228	182.02065
851.402	246.96133
851.577	299.94472
851.751	377.00395
851.925	216.65211
852.099	89.90265
852.274	154.21269
852.448	223.68914
852.622	239.40936
852.797	181.4986
852.971	228.52356
853.145	280.62739
853.319	449.09315
853.493	321.59441
853.668	219.09999
853.842	401.11328
854.016	323.64437
854.19	409.66288
854.364	230.63643
854.538	281.07135
854.712	291.7937
854.886	241.38892
855.06	241.20994
855.234	78.67129
855.408	356.16429
855.582	293.24689
855.756	345.4455
855.93	322.85383
856.104	269.6152
856.278	303.49478
856.452	221.76672
856.626	291.9854
856.8	408.65526
856.973	269.83969
857.147	290.2158
857.321	286.69849
857.495	281.0304
857.669	236.95251
857.842	197.06902
858.016	318.09847
858.19	142.59056
858.364	541.0737
858.537	195.11535
858.711	240.44917
858.885	202.80093
859.058	158.11815
859.232	105.23766
859.405	95.37345
859.579	296.89803
859.753	296.20433
859.926	151.51225
860.1	112.40313
860.273	238.51541
860.447	361.89227
860.62	204.07675
860.794	359.4942
860.967	229.20442
861.141	335.28343
861.314	498.63371
861.487	237.88816
861.661	318.772
861.834	407.57825
862.008	289.93397
862.181	246.82716
862.354	259.08648
862.528	335.45099
862.701	209.00542
862.874	141.14758
863.047	174.18268
863.221	202.11616
863.394	98.48964
863.567	309.73893
863.74	80.80695
863.913	328.47417
864.087	295.81993
864.26	301.17762
864.433	235.11584
864.606	402.84762
864.779	201.39457
864.952	106.20801
865.125	200.49385
865.298	223.28481
865.471	215.39712
865.644	357.08921
865.817	285.20943
865.99	326.38803
866.163	329.71778
866.336	189.71085
866.509	212.03568
866.682	193.45155
866.855	319.74839
867.028	118.29239
867.2	270.37431
867.373	72.97925
867.546	239.58114
867.719	421.93355
867.892	272.81374
868.064	157.97679
868.237	239.97109
868.41	199.22181
868.583	106.96183
868.755	129.91636
868.928	193.99015
869.101	392.36461
869.273	301.4739
869.446	244.3458
869.619	310.76898
869.791	219.67805
869.964	316.87602
870.136	298.56079
870.309	215.4892
870.481	237.9913
870.654	107.8046
870.826	225.05995
870.999	167.39965
871.171	264.23903
871.344	149.432
871.516	167.65304
871.689	148.50507
871.861	207.74899
872.033	162.69081
872.206	177.49806
872.378	260.30348
872.55	201.16247
872.723	127.17855
872.895	211.2436
873.067	291.85385
873.24	250.89535
873.412	168.51598
873.584	192.80315
873.756	183.06384
873.928	236.9119
874.101	232.2095
874.273	249.49379
874.445	88.46436
874.617	126.40712
874.789	224.07818
874.961	167.69357
875.133	259.9835
875.305	198.77126
875.477	145.96299
875.649	123.11929
875.821	134.10266
875.993	326.7189
876.165	145.93441
876.337	207.91991
876.509	197.77522
876.681	218.17592
876.853	181.73469
877.025	201.79215
877.197	131.52905
877.369	121.84586
877.541	227.40867
877.712	61.77569
877.884	111.66933
878.056	207.87582
878.228	117.4741
878.4	241.0236
878.571	116.01312
878.743	82.68055
878.915	161.43135
879.086	105.05228
879.258	134.58705
879.43	113.03201
879.601	96.30734
879.773	95.4664
879.945	20.8998
880.116	37.93765
880.288	21.1517
880.459	24.2168
880.631	16.87144
880.802	20.82605
880.974	19.59859
881.145	12.47624
881.317	18.5614
881.488	12.75774
881.66	14.62589
881.831	13.66727
882.002	21.30795
882.174	13.24374
882.345	20.24137
882.517	7.32654
882.688	28.05184
882.859	21.09483
883.03	38.61527
883.202	40.05163
883.373	31.6913
883.544	32.85419
883.715	56.90965
883.887	52.02811
884.058	44.00683
884.229	60.19582
884.4	61.18797
884.571	70.39114
884.742	55.53968
884.914	65.83017
885.085	90.32728
885.256	139.27279
885.427	105.19225
885.598	120.28109
885.769	128.55347
885.94	116.58575
886.111	76.44533
886.282	135.57329
886.453	112.62246
886.624	88.20639
886.795	149.051
886.966	124.57008
887.136	166.76475
887.307	99.66929
887.478	227.07176
887.649	178.01357
887.82	179.71554
887.991	153.87883
888.161	220.37044
888.332	197.27452
888.503	97.02174
888.674	271.98757
888.844	308.225
889.015	237.45583
889.186	126.38614
889.356	273.89836
889.527	113.07438
889.698	400.22292
889.868	146.60997
890.039	238.95235
890.209	171.41403
890.38	230.81299
890.551	235.21433
890.721	318.64323
890.892	267.1765
891.062	176.94332
891.233	223.528
891.403	201.06094
891.574	130.60527
891.744	165.74983
891.914	204.63192
892.085	171.14238
892.255	67.42398
892.425	272.51635
892.596	196.07541
892.766	214.70101
892.936	275.31977
893.107	221.07061
893.277	116.0418
893.447	78.2867
893.618	67.5454
893.788	126.61126
893.958	68.30011
894.128	60.27355
894.298	76.67529
894.468	96.061
894.639	44.74047
894.809	28.77406
894.979	49.89002
895.149	65.07536
895.319	49.44964
895.489	69.17255
895.659	100.08637
895.829	66.33192
895.999	72.3367
896.169	56.33449
896.339	84.2267
896.509	157.96351
896.679	173.50389
896.849	180.92915
897.019	255.77676
897.189	189.06583
897.358	160.21607
897.528	262.24582
897.698	105.59249
897.868	218.38106
898.038	349.01686
898.208	409.64426
898.377	114.24593
898.547	351.06462
898.717	531.70177
898.886	229.28661
899.056	355.87068
899.226	499.2109
899.395	343.40113
899.565	527.34173
899.735	337.66865
899.904	574.28846
900.074	517.97393
900.244	183.18163
900.413	672.82633
900.583	186.31872
900.752	372.61214
900.922	586.61235
901.091	45.35766
901.261	454.06818
901.43	371.18467
901.599	436.45736
901.769	821.63364
901.938	403.75167
902.108	327.6113
902.277	469.9563
902.446	136.79827
902.616	158.21324
902.785	192.07495
902.954	341.54891
903.124	203.24601
903.293	148.11965
903.462	78.40104
903.631	116.50124
903.801	92.98353
903.97	39.29832
904.139	73.00917
904.308	56.81231
904.477	48.72029
904.646	29.14068
904.816	50.05782
904.985	77.31043
905.154	120.96783
