Data from WindowProjectSample3_Transmission__4__00004.txt Node

Date: Sun May 04 09:42:27 EDT 2025
User: jessi
Spectrometer: SR400872
Trigger mode: 0
Integration Time (sec): 5.000070E-1
Scans to average: 20
Electric dark correction enabled: true
Nonlinearity correction enabled: true
Boxcar width: 0
XAxis mode: Wavelengths
Number of Pixels in Spectrum: 3648
>>>>>Begin Spectral Data<<<<<
184.909	-5691.2434
185.132	11273.47972
185.355	-8437.51197
185.578	-53137.79172
185.801	3146.68539
186.024	-135811.0067
186.247	-790.75707
186.47	1311.30578
186.693	1247.32401
186.916	-686.0961
187.139	-2510898.61575
187.362	-2939.60574
187.585	8506.91305
187.808	2078.25574
188.031	-90.18909
188.254	4783.52879
188.476	-1730.20724
188.699	2349.50967
188.922	504.66307
189.145	-6023.59212
189.368	-3952.84587
189.591	1707.41782
189.813	-149894.48129
190.036	8932.93709
190.259	1364.56493
190.482	5724.45732
190.705	17074.42219
190.927	17500.97083
191.15	-4111.23523
191.373	2016.62884
191.595	1571.36869
191.818	17792.57316
192.041	1020.76003
192.263	-7930.75487
192.486	-1617.89017
192.709	2891.77173
192.931	-3456.47809
193.154	13451.5653
193.377	2653.55109
193.599	26233.4148
193.822	2325.60308
194.044	2137.83769
194.267	982.96426
194.489	-216.62255
194.712	3526.19731
194.934	33958.98222
195.157	-596.47147
195.379	11073.95396
195.602	1790.28461
195.824	4555.97292
196.047	6658.21349
196.269	13720.53077
196.492	-11495.30876
196.714	4096.39737
196.936	7142.14937
197.159	10646.08649
197.381	4196.73591
197.604	1852148.20362
197.826	2020.07303
198.048	2241.52761
198.271	10034.95998
198.493	2010.85598
198.715	2770.19493
198.938	8326.504
199.16	3345.03698
199.382	9678.42769
199.604	10418.87689
199.827	1791.72853
200.049	3105.20094
200.271	20647.70746
200.493	1835.44756
200.715	7224.43333
200.938	7714.2677
201.16	-3775.42502
201.382	32689.32444
201.604	4175.32997
201.826	8313.42462
202.048	4439.48795
202.27	1980.81735
202.492	5962.51226
202.715	20388.19506
202.937	3867.43125
203.159	1534.53777
203.381	2033.51819
203.603	2807.43155
203.825	-1451.64485
204.047	-22884.71305
204.269	3508.91269
204.491	7010.57035
204.713	-1725541.77291
204.935	2271.5626
205.156	4141.66258
205.378	1632.57671
205.6	36805.21384
205.822	4687.95954
206.044	3648.50252
206.266	5989.72442
206.488	1460.48065
206.71	9181.24481
206.932	1477.34307
207.153	29323.05545
207.375	16420.08034
207.597	12282.41501
207.819	41856.98386
208.041	-43916.83531
208.262	1092.77914
208.484	12812.46613
208.706	3512.61213
208.927	2295.13884
209.149	804.76737
209.371	3737.91523
209.593	865.12206
209.814	9718.99007
210.036	-458378.63582
210.258	1503.47941
210.479	2336.69185
210.701	3429.85699
210.922	-5661.04927
211.144	-3072.79365
211.366	5148.3402
211.587	2842.61062
211.809	5749.74115
212.03	-65045.10183
212.252	527.7187
212.473	951.5611
212.695	705.9238
212.916	1286.23497
213.138	496.74672
213.359	5007.40275
213.581	2994.04909
213.802	775.61627
214.024	7705.9424
214.245	-13843.40962
214.466	471.96911
214.688	3899.31631
214.909	10738.43377
215.131	4330.81223
215.352	2620.77713
215.573	11888.41004
215.795	2114.191
216.016	2011.57181
216.237	-773420.07472
216.459	2066.48685
216.68	5990.40967
216.901	3335.5596
217.122	788.49
217.344	3014.58368
217.565	7377.50825
217.786	3568.20327
218.007	843.32264
218.228	2507.82381
218.45	-16239.62595
218.671	46083.15229
218.892	19391.38989
219.113	1682.57833
219.334	5046.43519
219.555	-8977.39277
219.776	1868.5401
219.997	4015.5241
220.219	1164.13844
220.44	1603.30548
220.661	1494.1779
220.882	6190.12294
221.103	1525.36651
221.324	8161.09861
221.545	3325.7398
221.766	3127.76747
221.987	1501.71891
222.208	918.03215
222.429	2318.71628
222.65	230.64559
222.87	780.38337
223.091	1760.15045
223.312	1077.32903
223.533	2076.37497
223.754	1555.35712
223.975	1759.34153
224.196	1014.40497
224.417	5270.27181
224.637	645.67619
224.858	68.52402
225.079	1143.21459
225.3	653.33449
225.521	2270.89326
225.741	626.7965
225.962	635.89892
226.183	159.64879
226.404	1046.23369
226.624	547.96831
226.845	636.30906
227.066	453.37227
227.286	304.80331
227.507	188.50189
227.728	144.68118
227.948	269.64502
228.169	93.51359
228.389	102.94113
228.61	65.68378
228.831	80.79242
229.051	6.1856
229.272	48.43332
229.492	74.35043
229.713	21.25634
229.933	51.96095
230.154	46.26315
230.374	75.38545
230.595	58.53374
230.815	32.11515
231.036	59.97239
231.256	-9.46445
231.477	98.31339
231.697	57.69673
231.917	64.26427
232.138	86.85665
232.358	156.77571
232.579	154.07308
232.799	27.54588
233.019	137.30184
233.24	163.88769
233.46	66.41097
233.68	87.71108
233.901	59.53141
234.121	44.81876
234.341	20.63685
234.561	-3.58045
234.782	32.13677
235.002	97.0434
235.222	0.67853
235.442	92.7258
235.662	46.77539
235.883	84.23486
236.103	74.16877
236.323	49.65201
236.543	39.62155
236.763	61.75652
236.983	62.81045
237.203	58.24265
237.423	88.83446
237.643	125.93419
237.864	107.65144
238.084	30.45663
238.304	36.683
238.524	65.60111
238.744	60.37287
238.964	99.27557
239.184	82.5287
239.404	94.12265
239.624	53.73043
239.843	83.09702
240.063	50.3896
240.283	30.0233
240.503	35.37565
240.723	35.46044
240.943	22.67582
241.163	27.01868
241.383	19.65681
241.603	11.07194
241.822	13.08536
242.042	9.20182
242.262	11.98803
242.482	14.00617
242.702	15.65424
242.921	5.45396
243.141	11.20192
243.361	9.91696
243.581	14.23586
243.8	12.24961
244.02	8.35957
244.24	14.75682
244.459	14.596
244.679	28.52724
244.899	18.93442
245.118	21.23798
245.338	19.47593
245.558	20.78919
245.777	13.17289
245.997	15.3952
246.216	14.34542
246.436	8.64726
246.655	5.59084
246.875	4.6331
247.094	8.71388
247.314	3.45088
247.533	5.58663
247.753	6.08898
247.972	5.47922
248.192	1.4332
248.411	3.26095
248.631	5.53996
248.85	7.14877
249.07	6.74571
249.289	9.76661
249.508	7.10424
249.728	11.92173
249.947	11.10317
250.166	13.7112
250.386	7.38123
250.605	11.53562
250.824	17.87559
251.044	12.48807
251.263	36.20445
251.482	20.9061
251.701	17.54964
251.921	0.02682
252.14	5.89624
252.359	6.57524
252.578	14.67968
252.798	5.85209
253.017	13.67975
253.236	6.85769
253.455	9.4692
253.674	18.15252
253.893	8.45633
254.112	12.69347
254.331	17.38985
254.551	15.15255
254.77	7.29152
254.989	21.67472
255.208	15.64807
255.427	23.49778
255.646	20.29839
255.865	31.00664
256.084	13.96238
256.303	16.84909
256.522	20.70707
256.741	4.83314
256.96	5.00959
257.179	13.18504
257.397	16.90026
257.616	9.76155
257.835	9.64681
258.054	22.27824
258.273	15.36054
258.492	15.8387
258.711	9.70588
258.93	4.91665
259.148	6.45008
259.367	6.09348
259.586	8.06898
259.805	3.52636
260.023	7.00639
260.242	5.42874
260.461	4.21871
260.68	2.04885
260.898	6.55223
261.117	2.16841
261.336	1.45999
261.554	5.6967
261.773	5.79253
261.992	1.58242
262.21	5.37077
262.429	6.54349
262.648	10.76636
262.866	12.36551
263.085	9.25651
263.303	7.44257
263.522	13.41327
263.74	13.28939
263.959	22.85783
264.178	12.20806
264.396	10.26635
264.615	8.12238
264.833	17.31448
265.051	14.39694
265.27	16.59765
265.488	16.20915
265.707	9.41158
265.925	15.63951
266.144	7.54775
266.362	8.74454
266.58	8.80194
266.799	7.31429
267.017	8.87192
267.235	7.54383
267.454	5.13605
267.672	2.96334
267.89	6.67992
268.109	6.87095
268.327	7.07095
268.545	1.31068
268.763	5.87802
268.982	2.95441
269.2	7.02589
269.418	4.37942
269.636	3.59353
269.854	7.13439
270.073	5.30788
270.291	2.93306
270.509	3.12367
270.727	7.16302
270.945	10.73018
271.163	10.38968
271.381	2.77217
271.599	4.71838
271.817	7.7075
272.036	2.76347
272.254	5.04969
272.472	3.6458
272.69	3.4146
272.908	4.21498
273.126	6.28055
273.344	7.84532
273.562	2.96598
273.779	4.18979
273.997	6.45014
274.215	6.22642
274.433	4.55417
274.651	7.03154
274.869	7.16648
275.087	4.13225
275.305	6.34739
275.523	4.08092
275.74	4.81204
275.958	8.38896
276.176	11.93801
276.394	3.91234
276.612	5.01722
276.829	5.25351
277.047	4.89684
277.265	4.50599
277.483	5.64145
277.7	6.30236
277.918	5.24695
278.136	9.55948
278.353	4.68505
278.571	3.01512
278.789	7.08177
279.006	1.90152
279.224	4.08272
279.442	7.67544
279.659	5.34442
279.877	3.79936
280.094	8.40274
280.312	1.92578
280.529	5.45264
280.747	1.90245
280.964	4.25475
281.182	8.51673
281.399	4.43432
281.617	5.36125
281.834	3.83779
282.052	2.94289
282.269	4.8768
282.487	3.94529
282.704	3.46105
282.921	3.23525
283.139	5.06179
283.356	6.34149
283.574	5.89601
283.791	2.96368
284.008	7.86168
284.226	4.52673
284.443	5.14168
284.66	6.39126
284.877	5.17304
285.095	3.24362
285.312	2.54558
285.529	1.49256
285.746	1.28511
285.964	3.10401
286.181	2.18706
286.398	3.07336
286.615	4.16079
286.832	4.06533
287.05	1.15048
287.267	2.99417
287.484	2.85278
287.701	4.17524
287.918	3.78536
288.135	4.34914
288.352	1.9953
288.569	2.2714
288.786	3.67093
289.003	2.79254
289.22	4.39887
289.437	2.43116
289.654	4.40822
289.871	4.40915
290.088	4.42644
290.305	3.49864
290.522	2.81597
290.739	3.14328
290.956	4.85826
291.173	5.62307
291.39	5.32846
291.607	3.66559
291.824	3.21942
292.04	2.21672
292.257	4.71411
292.474	5.13422
292.691	3.44642
292.908	1.79663
293.125	2.76865
293.341	2.08854
293.558	8.06163
293.775	3.65133
293.992	3.85201
294.208	1.82715
294.425	3.33116
294.642	3.97154
294.858	5.99151
295.075	2.46346
295.292	4.36354
295.508	5.42049
295.725	7.42836
295.942	5.39993
296.158	4.95661
296.375	6.51651
296.591	6.01552
296.808	6.67635
297.024	7.53085
297.241	8.20065
297.458	8.82119
297.674	6.08258
297.891	8.54202
298.107	8.98531
298.323	7.88333
298.54	11.2127
298.756	9.31214
298.973	8.32414
299.189	12.07984
299.406	10.07453
299.622	12.2272
299.838	12.76363
300.055	12.26679
300.271	10.10501
300.487	10.68243
300.704	11.3746
300.92	10.90767
301.136	15.91594
301.353	14.10902
301.569	12.96035
301.785	13.63941
302.001	14.35288
302.218	14.34178
302.434	14.8986
302.65	12.24558
302.866	13.53083
303.083	17.31966
303.299	17.57346
303.515	14.6059
303.731	15.63232
303.947	13.36665
304.163	14.61846
304.379	15.25253
304.595	15.81353
304.812	14.3654
305.028	14.4927
305.244	14.82554
305.46	16.35311
305.676	16.82583
305.892	17.65421
306.108	16.72406
306.324	15.58565
306.54	18.56712
306.756	16.66958
306.972	16.39603
307.187	16.34447
307.403	17.59034
307.619	15.7138
307.835	17.76489
308.051	18.07775
308.267	15.37692
308.483	18.59943
308.699	17.54109
308.914	17.32061
309.13	17.12292
309.346	15.72804
309.562	16.23789
309.778	15.74953
309.993	18.02327
310.209	17.70808
310.425	16.20021
310.641	17.67182
310.856	16.64977
311.072	16.72513
311.288	17.81664
311.503	18.54313
311.719	15.96002
311.935	16.16077
312.15	18.73332
312.366	18.65469
312.581	18.89711
312.797	18.50397
313.013	19.34173
313.228	17.5316
313.444	17.50082
313.659	17.00802
313.875	18.72103
314.09	17.97993
314.306	20.10964
314.521	19.04585
314.737	18.94891
314.952	18.23455
315.168	18.31978
315.383	18.56291
315.599	17.50972
315.814	17.86362
316.029	19.19983
316.245	17.18217
316.46	15.6959
316.675	19.71945
316.891	20.51489
317.106	22.25335
317.321	18.43273
317.537	19.02285
317.752	19.40648
317.967	19.44058
318.183	17.08784
318.398	17.71231
318.613	19.54495
318.828	20.09315
319.043	19.41927
319.259	18.22527
319.474	18.85044
319.689	20.00585
319.904	15.98187
320.119	19.70511
320.334	18.46566
320.549	18.22971
320.765	19.8422
320.98	18.98493
321.195	18.77707
321.41	18.69243
321.625	19.393
321.84	20.79882
322.055	20.21359
322.27	17.75938
322.485	16.86758
322.7	19.3772
322.915	19.83701
323.13	18.35381
323.345	21.1734
323.56	20.39724
323.775	19.96868
323.989	19.94713
324.204	19.50962
324.419	20.71422
324.634	17.75229
324.849	19.33539
325.064	22.62163
325.279	20.94358
325.493	20.03329
325.708	20.55422
325.923	18.44385
326.138	19.34071
326.352	21.43496
326.567	20.73475
326.782	18.7073
326.997	19.00767
327.211	20.53499
327.426	19.9313
327.641	19.2248
327.855	17.47199
328.07	20.55298
328.285	22.18758
328.499	19.19797
328.714	19.90788
328.928	20.10191
329.143	19.52093
329.358	21.21207
329.572	21.15913
329.787	21.77143
330.001	23.00314
330.216	17.52635
330.43	22.3618
330.645	21.1802
330.859	20.97992
331.074	18.06511
331.288	19.85129
331.503	22.11066
331.717	18.19742
331.931	19.70203
332.146	20.45476
332.36	22.68763
332.575	20.64958
332.789	20.17036
333.003	20.41864
333.218	20.70587
333.432	19.32173
333.646	21.17811
333.86	22.48265
334.075	22.64488
334.289	19.4874
334.503	18.14095
334.717	21.22907
334.932	20.09605
335.146	21.15828
335.36	18.83403
335.574	21.11799
335.788	20.68242
336.003	21.65626
336.217	21.8875
336.431	20.90447
336.645	19.96736
336.859	19.25278
337.073	20.44685
337.287	20.91372
337.501	18.71864
337.715	21.34349
337.929	20.94132
338.143	19.31
338.357	20.32766
338.571	20.15313
338.785	22.0048
338.999	20.24637
339.213	20.48478
339.427	19.50176
339.641	22.58555
339.855	20.34795
340.069	19.69219
340.283	22.25137
340.497	22.93491
340.711	21.98574
340.924	21.06331
341.138	19.98948
341.352	19.14669
341.566	21.17862
341.78	19.45928
341.993	20.51337
342.207	20.18829
342.421	21.7509
342.635	21.07236
342.848	20.69402
343.062	18.17176
343.276	20.53421
343.49	23.77019
343.703	20.46064
343.917	22.43583
344.131	22.67966
344.344	20.29056
344.558	20.90732
344.771	19.72037
344.985	23.14088
345.199	23.71184
345.412	22.17227
345.626	22.5174
345.839	19.65885
346.053	20.19738
346.266	20.63584
346.48	22.46405
346.693	22.23178
346.907	22.0668
347.12	20.56577
347.334	21.88701
347.547	22.15626
347.76	21.34592
347.974	23.12964
348.187	21.97658
348.401	21.2047
348.614	20.21805
348.827	21.30762
349.041	22.07919
349.254	19.4637
349.467	21.16582
349.681	20.7747
349.894	20.59767
350.107	23.10107
350.32	24.2765
350.534	20.43165
350.747	21.50793
350.96	21.00526
351.173	21.1505
351.386	21.36081
351.6	21.21788
351.813	21.46573
352.026	21.80295
352.239	20.51065
352.452	21.35441
352.665	23.37853
352.878	21.58764
353.092	24.78554
353.305	23.05186
353.518	22.40542
353.731	21.05325
353.944	23.37332
354.157	21.91412
354.37	21.82248
354.583	20.94674
354.796	20.95525
355.009	23.88679
355.222	22.75483
355.435	22.56399
355.647	23.90904
355.86	21.93003
356.073	22.79982
356.286	22.11479
356.499	24.00422
356.712	23.84925
356.925	23.58165
357.138	24.11471
357.35	22.13021
357.563	22.54479
357.776	23.32694
357.989	23.12277
358.201	23.86908
358.414	23.79463
358.627	24.72515
358.84	23.16596
359.052	21.91331
359.265	22.33434
359.478	24.43184
359.69	20.56847
359.903	24.3564
360.116	24.58709
360.328	21.90835
360.541	24.46843
360.753	23.06144
360.966	23.32254
361.179	23.57138
361.391	23.38627
361.604	23.10798
361.816	23.51584
362.029	23.58903
362.241	23.10057
362.454	23.9421
362.666	23.12978
362.879	24.72369
363.091	23.76152
363.304	23.49382
363.516	23.70686
363.728	22.90624
363.941	24.47048
364.153	24.11918
364.366	21.81437
364.578	22.68892
364.79	24.54165
365.003	24.22104
365.215	23.62138
365.427	24.65412
365.639	25.10088
365.852	24.27053
366.064	25.72592
366.276	23.84859
366.488	24.40233
366.701	23.92471
366.913	23.84206
367.125	23.55181
367.337	23.40377
367.549	23.52749
367.762	23.88171
367.974	24.03736
368.186	24.24783
368.398	25.28327
368.61	24.93276
368.822	25.04786
369.034	23.90791
369.246	25.41921
369.458	27.33161
369.67	23.49482
369.882	26.29854
370.094	22.25535
370.306	25.85257
370.518	24.13314
370.73	24.05683
370.942	24.13056
371.154	24.62643
371.366	24.43813
371.578	25.26918
371.79	24.51433
372.002	25.98073
372.214	27.19952
372.425	24.84396
372.637	26.89252
372.849	25.42042
373.061	22.74486
373.273	25.39705
373.484	25.44261
373.696	25.87564
373.908	22.70551
374.12	26.02513
374.331	25.75783
374.543	24.00618
374.755	23.90767
374.967	25.07928
375.178	26.43985
375.39	24.99809
375.602	25.25812
375.813	23.73628
376.025	24.55084
376.236	25.57261
376.448	25.92739
376.66	25.41991
376.871	25.43293
377.083	26.47148
377.294	27.38813
377.506	25.31141
377.717	27.27973
377.929	26.18493
378.14	25.57783
378.352	26.36969
378.563	26.62599
378.775	27.58112
378.986	25.06548
379.197	26.49159
379.409	25.25864
379.62	26.5008
379.832	26.20135
380.043	25.81701
380.254	26.33451
380.466	24.95932
380.677	28.95317
380.888	28.43129
381.1	29.15761
381.311	28.44341
381.522	26.66786
381.733	29.16873
381.945	26.23876
382.156	26.05708
382.367	26.05221
382.578	29.50417
382.789	29.71415
383.001	25.62468
383.212	28.54581
383.423	28.53552
383.634	27.79246
383.845	27.66234
384.056	26.44796
384.267	26.94583
384.478	26.95646
384.69	25.73395
384.901	27.50059
385.112	27.26404
385.323	29.06006
385.534	27.57102
385.745	27.47025
385.956	27.40119
386.167	26.22691
386.378	27.7121
386.588	26.37
386.799	26.28955
387.01	25.73662
387.221	28.41719
387.432	27.35136
387.643	29.15234
387.854	27.12337
388.065	27.16502
388.275	27.15379
388.486	26.80563
388.697	27.51999
388.908	27.17282
389.119	28.79893
389.329	29.04136
389.54	27.70027
389.751	27.88798
389.962	28.71112
390.172	27.55677
390.383	27.42885
390.594	27.04282
390.804	27.04668
391.015	27.2637
391.226	27.89924
391.436	28.52001
391.647	28.23657
391.858	28.58568
392.068	26.31176
392.279	27.1118
392.489	28.56852
392.7	28.90126
392.91	27.2372
393.121	27.14643
393.331	28.58657
393.542	29.32681
393.752	28.70331
393.963	28.53055
394.173	28.40837
394.384	28.69436
394.594	28.27591
394.804	27.15811
395.015	28.30998
395.225	28.91673
395.436	27.40788
395.646	28.72831
395.856	27.85407
396.067	26.90177
396.277	29.30976
396.487	28.83694
396.697	28.93847
396.908	29.18842
397.118	28.96271
397.328	28.39298
397.538	29.33945
397.749	27.73357
397.959	29.55087
398.169	28.88675
398.379	27.10425
398.589	29.125
398.8	28.82678
399.01	28.87923
399.22	28.47923
399.43	31.05939
399.64	28.69328
399.85	29.08163
400.06	28.98394
400.27	27.93651
400.48	28.59957
400.69	29.89131
400.9	28.22718
401.11	27.92076
401.32	29.67823
401.53	28.26045
401.74	30.46472
401.95	29.40269
402.16	28.5415
402.37	29.54949
402.58	28.64706
402.79	29.50388
403	29.97359
403.209	28.27943
403.419	29.9849
403.629	28.66854
403.839	30.08857
404.049	30.0697
404.258	28.9234
404.468	28.63852
404.678	30.17254
404.888	30.66888
405.097	29.14623
405.307	29.53159
405.517	30.24667
405.727	29.94874
405.936	29.15814
406.146	29.93976
406.356	30.99447
406.565	29.65303
406.775	29.09073
406.984	29.3003
407.194	31.55975
407.404	29.74718
407.613	30.08208
407.823	30.38939
408.032	31.09787
408.242	30.78708
408.451	29.259
408.661	29.65962
408.87	31.44166
409.08	29.35061
409.289	30.27187
409.499	30.46777
409.708	29.94646
409.918	27.94449
410.127	30.25534
410.336	31.56438
410.546	30.95414
410.755	29.7779
410.964	29.70723
411.174	29.39171
411.383	30.7055
411.592	30.7705
411.802	29.41957
412.011	30.9543
412.22	30.31506
412.429	32.0181
412.639	31.69477
412.848	31.49948
413.057	31.96806
413.266	31.84858
413.475	30.38795
413.685	31.42115
413.894	31.54281
414.103	31.80514
414.312	31.45435
414.521	30.50509
414.73	30.91269
414.939	32.68112
415.148	31.47171
415.357	31.24271
415.566	30.81467
415.776	30.5749
415.985	30.67356
416.194	32.02562
416.403	32.92598
416.611	30.31884
416.82	30.66895
417.029	31.56271
417.238	30.85069
417.447	30.7297
417.656	31.06113
417.865	30.8998
418.074	31.31389
418.283	31.5372
418.492	32.35889
418.7	32.28844
418.909	33.16697
419.118	31.82357
419.327	32.15377
419.536	31.95294
419.744	31.49793
419.953	32.71938
420.162	32.82677
420.371	32.67067
420.579	34.20249
420.788	35.19259
420.997	35.25083
421.205	36.22667
421.414	35.65407
421.623	35.78331
421.831	35.0187
422.04	35.55752
422.249	33.83795
422.457	34.00451
422.666	32.61376
422.874	33.85601
423.083	34.2096
423.291	34.46497
423.5	34.9713
423.708	35.7755
423.917	36.70665
424.125	35.7239
424.334	35.95164
424.542	37.9622
424.751	37.1525
424.959	36.17848
425.167	35.69238
425.376	35.36547
425.584	33.18941
425.793	33.62173
426.001	32.58245
426.209	34.03129
426.418	32.6378
426.626	32.88743
426.834	32.61262
427.042	33.29737
427.251	32.69627
427.459	33.92628
427.667	33.49926
427.875	32.04062
428.084	32.8003
428.292	34.34737
428.5	34.08002
428.708	32.65608
428.916	32.66446
429.124	33.55223
429.333	33.0311
429.541	33.29572
429.749	33.46103
429.957	33.47702
430.165	35.52082
430.373	32.36617
430.581	33.48115
430.789	34.64045
430.997	33.35064
431.205	32.94977
431.413	33.80158
431.621	33.32488
431.829	34.34431
432.037	33.37929
432.245	34.13022
432.453	34.17672
432.661	33.62765
432.869	35.5261
433.076	33.2048
433.284	33.74173
433.492	34.5132
433.7	35.04372
433.908	33.83367
434.116	34.10949
434.323	34.176
434.531	34.17576
434.739	34.74417
434.947	34.94886
435.154	34.78784
435.362	34.40371
435.57	34.09309
435.778	33.77885
435.985	34.58567
436.193	33.90653
436.401	35.2866
436.608	34.448
436.816	33.95773
437.023	35.84335
437.231	35.82991
437.439	34.4611
437.646	34.94114
437.854	34.90749
438.061	34.85194
438.269	34.29537
438.476	35.26743
438.684	34.65271
438.891	34.44876
439.099	34.27921
439.306	33.73465
439.514	34.0159
439.721	35.07769
439.929	34.23371
440.136	35.09485
440.343	35.04347
440.551	34.6891
440.758	36.64082
440.965	35.39404
441.173	35.02024
441.38	34.72793
441.587	35.45897
441.795	34.77206
442.002	35.32943
442.209	35.44225
442.416	35.68892
442.624	35.5659
442.831	35.6013
443.038	34.837
443.245	34.36927
443.452	34.96307
443.66	35.74441
443.867	34.68024
444.074	34.86468
444.281	34.44006
444.488	35.02744
444.695	35.08258
444.902	34.86619
445.109	35.64795
445.316	35.06757
445.523	35.10802
445.73	35.24723
445.937	36.52282
446.144	37.61425
446.351	38.2876
446.558	36.50981
446.765	39.65573
446.972	37.72353
447.179	37.13669
447.386	37.3577
447.593	35.34004
447.8	36.68104
448.007	35.63948
448.214	35.7671
448.42	35.42497
448.627	36.84974
448.834	35.95675
449.041	35.56464
449.248	35.7218
449.454	36.46949
449.661	37.29927
449.868	35.70928
450.075	35.52458
450.281	34.52718
450.488	35.02772
450.695	35.24558
450.901	35.19563
451.108	35.38249
451.315	36.68148
451.521	35.74974
451.728	36.8319
451.935	35.47684
452.141	35.78577
452.348	35.95681
452.554	35.92209
452.761	35.90916
452.967	37.38071
453.174	36.14245
453.38	36.52375
453.587	35.17564
453.793	36.23647
454	36.67893
454.206	38.01182
454.413	37.16325
454.619	36.66388
454.825	35.54549
455.032	36.85738
455.238	36.96805
455.445	35.25915
455.651	36.38262
455.857	34.73665
456.064	36.35266
456.27	36.3052
456.476	36.31574
456.682	35.40561
456.889	36.95131
457.095	36.89896
457.301	38.41482
457.507	36.49264
457.714	36.60141
457.92	36.36434
458.126	35.94957
458.332	36.29143
458.538	35.99511
458.744	36.14146
458.951	36.16847
459.157	37.91155
459.363	36.61908
459.569	36.63508
459.775	37.30427
459.981	36.99116
460.187	37.49597
460.393	37.40646
460.599	37.92195
460.805	36.92874
461.011	37.14516
461.217	38.00351
461.423	38.24433
461.629	37.01028
461.835	37.7251
462.041	37.04864
462.247	38.69101
462.453	36.99762
462.658	37.23676
462.864	37.80902
463.07	37.34342
463.276	37.38879
463.482	37.28509
463.688	38.37807
463.893	36.42797
464.099	36.99195
464.305	38.86576
464.511	36.97214
464.716	37.36921
464.922	38.12727
465.128	36.74745
465.333	38.90151
465.539	37.9294
465.745	37.35994
465.95	37.60062
466.156	39.91346
466.362	38.42777
466.567	37.39545
466.773	37.03451
466.978	38.79095
467.184	36.7992
467.389	36.0649
467.595	37.92692
467.8	36.82953
468.006	38.99599
468.211	38.81499
468.417	36.78167
468.622	38.25727
468.828	38.34813
469.033	38.21144
469.239	40.38004
469.444	37.43368
469.649	38.67279
469.855	37.96592
470.06	38.16004
470.266	37.26976
470.471	38.88146
470.676	38.50463
470.881	36.57918
471.087	39.487
471.292	39.88512
471.497	36.95501
471.703	38.31825
471.908	37.76498
472.113	38.18468
472.318	39.0219
472.523	37.44464
472.729	38.54019
472.934	38.48138
473.139	38.01899
473.344	38.49942
473.549	39.33862
473.754	37.38272
473.959	40.32638
474.164	37.88207
474.369	38.29591
474.575	39.26864
474.78	38.5028
474.985	37.97545
475.19	37.02066
475.395	37.77401
475.6	38.51313
475.804	39.57005
476.009	38.58702
476.214	38.22598
476.419	37.82207
476.624	37.16715
476.829	37.75085
477.034	39.00201
477.239	37.94975
477.444	38.59256
477.648	39.03717
477.853	39.08111
478.058	38.2436
478.263	38.05806
478.468	37.75414
478.672	37.89435
478.877	39.90575
479.082	40.26064
479.287	38.92329
479.491	38.60554
479.696	37.72059
479.901	39.40082
480.105	39.33368
480.31	38.13958
480.515	38.68282
480.719	40.67452
480.924	38.36089
481.128	37.74625
481.333	38.58989
481.538	38.91452
481.742	38.03948
481.947	38.82636
482.151	40.42768
482.356	44.37233
482.56	51.59491
482.765	58.5036
482.969	68.44068
483.174	76.77138
483.378	86.68829
483.582	89.61201
483.787	93.08705
483.991	94.10747
484.196	93.34557
484.4	90.84194
484.604	88.46188
484.809	80.60075
485.013	73.66256
485.217	65.65007
485.422	58.80606
485.626	54.11094
485.83	52.17185
486.034	51.89109
486.239	54.15871
486.443	56.87083
486.647	59.44698
486.851	62.92749
487.055	66.95398
487.26	68.24581
487.464	70.75881
487.668	69.88883
487.872	70.84451
488.076	69.3649
488.28	66.25423
488.484	61.7945
488.688	58.78475
488.892	55.22365
489.096	50.81987
489.3	47.17896
489.504	44.12768
489.708	42.07251
489.912	41.61403
490.116	41.47723
490.32	42.57143
490.524	46.66346
490.728	49.96862
490.932	53.80547
491.136	56.97138
491.34	59.24665
491.544	59.87803
491.748	59.70519
491.951	58.81723
492.155	57.08416
492.359	54.36876
492.563	49.63934
492.767	45.33988
492.97	40.6849
493.174	39.19542
493.378	39.51594
493.582	39.07304
493.785	39.63024
493.989	40.05193
494.193	39.91601
494.396	39.39896
494.6	40.36996
494.804	39.59703
495.007	39.2825
495.211	39.12878
495.414	39.58834
495.618	39.70867
495.822	40.5478
496.025	39.57384
496.229	40.30149
496.432	39.22374
496.636	39.81502
496.839	39.63544
497.043	41.30279
497.246	40.25013
497.45	39.77846
497.653	39.92353
497.856	40.14205
498.06	39.30827
498.263	39.97627
498.467	39.4901
498.67	40.77282
498.873	40.4567
499.077	39.75481
499.28	39.86143
499.483	40.32717
499.686	40.7421
499.89	40.42551
500.093	40.78199
500.296	39.71379
500.499	41.4234
500.703	40.27053
500.906	40.6176
501.109	41.69227
501.312	40.32429
501.515	40.25253
501.719	40.69871
501.922	41.59345
502.125	40.57823
502.328	40.48425
502.531	39.55452
502.734	40.53443
502.937	38.97317
503.14	40.42688
503.343	39.62305
503.546	40.17474
503.749	39.57242
503.952	40.55693
504.155	39.77855
504.358	41.02278
504.561	40.47629
504.764	39.4229
504.967	40.58458
505.17	40.54357
505.373	41.94654
505.576	40.69534
505.778	41.03965
505.981	40.05576
506.184	41.47399
506.387	39.21225
506.59	41.82848
506.793	41.59297
506.995	40.94181
507.198	39.2489
507.401	40.92994
507.604	41.00811
507.806	39.68334
508.009	40.19446
508.212	41.31502
508.414	40.24464
508.617	40.27275
508.82	40.81593
509.022	41.87923
509.225	41.17282
509.427	39.70589
509.63	41.90537
509.833	40.79573
510.035	40.80411
510.238	39.8466
510.44	41.80412
510.643	39.35834
510.845	42.76676
511.048	41.24496
511.25	40.58029
511.453	41.00114
511.655	41.46637
511.858	40.53275
512.06	41.76952
512.262	41.10335
512.465	41.76449
512.667	40.60751
512.869	40.20778
513.072	41.3768
513.274	41.84749
513.476	41.62591
513.679	41.82691
513.881	40.19751
514.083	42.56225
514.286	40.67536
514.488	40.69678
514.69	40.27237
514.892	39.85043
515.094	41.75286
515.297	40.59479
515.499	41.34411
515.701	40.49382
515.903	42.50648
516.105	42.65217
516.307	41.59879
516.509	39.56937
516.711	39.9001
516.913	41.08567
517.116	40.88153
517.318	40.57427
517.52	41.63081
517.722	41.35278
517.924	39.92706
518.126	41.23331
518.328	40.43868
518.529	41.58384
518.731	42.61829
518.933	40.96581
519.135	41.25502
519.337	42.31492
519.539	41.88598
519.741	40.02978
519.943	41.51478
520.145	41.21583
520.346	41.97488
520.548	41.2196
520.75	41.6942
520.952	41.15149
521.153	41.73235
521.355	41.83619
521.557	40.75834
521.759	41.58212
521.96	41.32219
522.162	40.65117
522.364	42.2805
522.565	40.74691
522.767	41.95516
522.969	42.29308
523.17	41.89884
523.372	41.80821
523.573	40.91375
523.775	41.20985
523.977	40.57297
524.178	42.59151
524.38	40.81724
524.581	41.86038
524.783	40.9061
524.984	41.85607
525.186	41.25804
525.387	41.72421
525.589	41.34595
525.79	41.23512
525.991	40.97232
526.193	41.86645
526.394	40.59877
526.596	41.82374
526.797	41.68294
526.998	41.16654
527.2	43.76615
527.401	49.59863
527.602	54.69512
527.803	62.54712
528.005	67.2423
528.206	71.42262
528.407	74.05419
528.608	74.44067
528.81	74.26402
529.011	72.13679
529.212	71.80235
529.413	67.16173
529.614	61.7187
529.815	56.21867
530.017	50.76688
530.218	45.45141
530.419	41.61355
530.62	41.82078
530.821	41.74419
531.022	40.89171
531.223	42.0976
531.424	42.264
531.625	41.85196
531.826	41.7453
532.027	41.68476
532.228	43.96366
532.429	46.22847
532.63	48.5182
532.831	51.07372
533.032	51.49856
533.233	52.78306
533.433	51.52609
533.634	51.43265
533.835	49.13766
534.036	46.86902
534.237	44.00884
534.438	41.88428
534.638	41.32527
534.839	41.71554
535.04	42.63946
535.241	41.80561
535.441	43.21642
535.642	42.19321
535.843	41.21465
536.043	41.38617
536.244	41.45678
536.445	41.70693
536.645	42.65564
536.846	42.1608
537.047	42.98611
537.247	41.64389
537.448	42.08193
537.648	42.5967
537.849	42.491
538.049	42.272
538.25	43.12939
538.451	42.68921
538.651	41.60116
538.851	42.54071
539.052	43.35171
539.252	42.90958
539.453	42.12031
539.653	42.34316
539.854	42.10827
540.054	41.9933
540.254	42.56757
540.455	46.33118
540.655	49.07543
540.855	53.36526
541.056	55.82586
541.256	55.90068
541.456	57.19136
541.657	56.57688
541.857	56.02429
542.057	53.30135
542.257	50.53631
542.458	48.81953
542.658	45.48896
542.858	41.86207
543.058	43.33256
543.258	42.78245
543.458	41.6249
543.659	41.4355
543.859	43.05738
544.059	42.80324
544.259	42.23262
544.459	43.14133
544.659	42.07021
544.859	42.85653
545.059	42.26416
545.259	43.10011
545.459	42.59145
545.659	43.17393
545.859	42.45471
546.059	42.4697
546.259	41.81915
546.459	41.34421
546.659	41.84604
546.859	43.08187
547.059	43.08444
547.258	43.15298
547.458	43.13566
547.658	41.9505
547.858	41.89764
548.058	43.02107
548.258	42.57152
548.457	41.96216
548.657	45.25433
548.857	42.5974
549.057	43.82324
549.256	43.43217
549.456	42.51302
549.656	40.54801
549.855	44.57658
550.055	42.60449
550.255	44.52051
550.454	43.1157
550.654	43.57767
550.853	44.21021
551.053	43.88493
551.253	43.2981
551.452	43.4586
551.652	41.89477
551.851	41.55322
552.051	42.65983
552.25	42.37189
552.45	41.9896
552.649	42.62993
552.849	42.14689
553.048	42.76774
553.248	43.63748
553.447	41.90105
553.646	43.69902
553.846	44.85083
554.045	44.08489
554.244	41.78545
554.444	44.78451
554.643	41.71316
554.842	44.78414
555.042	45.49423
555.241	42.38252
555.44	42.27011
555.64	43.82562
555.839	45.51151
556.038	43.96761
556.237	42.73414
556.436	43.28022
556.636	43.78679
556.835	42.44007
557.034	45.12082
557.233	43.07043
557.432	41.77407
557.631	44.29633
557.83	43.00757
558.029	42.6775
558.228	42.43302
558.427	42.42437
558.626	43.64892
558.825	41.9261
559.024	43.19475
559.223	45.38654
559.422	43.00568
559.621	43.68501
559.82	40.55683
560.019	43.34671
560.218	42.93497
560.417	40.18168
560.616	42.70628
560.815	47.02176
561.014	41.90736
561.212	44.99887
561.411	43.55311
561.61	41.60064
561.809	42.93014
562.008	44.88538
562.206	43.21213
562.405	43.9526
562.604	43.11132
562.803	43.93205
563.001	43.04052
563.2	41.97698
563.399	43.85772
563.597	42.35194
563.796	43.24008
563.995	42.43559
564.193	43.94961
564.392	43.03619
564.59	46.02284
564.789	41.32555
564.988	42.85673
565.186	43.53367
565.385	43.12022
565.583	42.82602
565.782	43.30242
565.98	43.10825
566.179	43.38623
566.377	42.37212
566.575	42.70526
566.774	44.82956
566.972	44.44035
567.171	45.73146
567.369	44.96299
567.567	43.57736
567.766	43.6789
567.964	41.28139
568.162	44.0914
568.361	44.60614
568.559	43.21566
568.757	44.13075
568.956	43.53622
569.154	43.3701
569.352	44.53419
569.55	43.44447
569.748	43.50605
569.947	42.70046
570.145	42.70497
570.343	42.79843
570.541	44.75717
570.739	42.32517
570.937	43.845
571.135	43.77158
571.333	45.43451
571.532	45.42597
571.73	43.8523
571.928	44.59573
572.126	44.15278
572.324	42.99998
572.522	45.45918
572.72	46.87122
572.918	43.55673
573.116	44.40692
573.313	43.71548
573.511	43.82006
573.709	43.28497
573.907	44.8534
574.105	43.41746
574.303	41.91484
574.501	42.28374
574.699	44.36152
574.896	44.39115
575.094	44.26573
575.292	42.43735
575.49	44.80226
575.688	43.48507
575.885	45.37888
576.083	46.43598
576.281	44.38953
576.478	43.17604
576.676	44.78429
576.874	42.42229
577.071	44.00314
577.269	47.17457
577.467	44.18162
577.664	44.19003
577.862	45.49801
578.059	43.14143
578.257	45.20852
578.455	43.84418
578.652	44.45539
578.85	41.85804
579.047	43.92967
579.245	44.13424
579.442	43.95282
579.64	44.26106
579.837	42.03495
580.034	48.50564
580.232	43.87232
580.429	42.74876
580.627	45.03334
580.824	45.83046
581.021	45.06423
581.219	43.62393
581.416	43.54794
581.613	46.24916
581.811	46.16099
582.008	43.056
582.205	45.45626
582.402	44.7033
582.6	46.36905
582.797	44.51623
582.994	45.25003
583.191	45.43784
583.388	44.80148
583.586	45.79771
583.783	45.69269
583.98	43.26233
584.177	44.59614
584.374	40.75708
584.571	44.61239
584.768	44.06948
584.965	44.15142
585.162	45.55597
585.359	47.26865
585.556	44.92699
585.753	45.38709
585.95	43.09631
586.147	43.38095
586.344	45.58354
586.541	44.32041
586.738	43.30112
586.935	44.37622
587.132	43.29024
587.329	46.39455
587.526	44.7203
587.722	51.81741
587.919	42.8162
588.116	45.29806
588.313	46.9457
588.51	48.41939
588.706	44.28165
588.903	45.71403
589.1	46.15336
589.297	48.79979
589.493	44.77851
589.69	45.70529
589.887	44.0709
590.083	42.79051
590.28	43.79116
590.477	46.10876
590.673	46.15393
590.87	46.75131
591.067	44.01656
591.263	45.49721
591.46	45.26017
591.656	44.44824
591.853	46.84728
592.049	43.75005
592.246	44.09523
592.442	47.04982
592.639	46.39283
592.835	43.66406
593.032	45.40002
593.228	42.973
593.425	42.64232
593.621	42.88028
593.817	45.48445
594.014	44.08675
594.21	44.82936
594.406	46.31014
594.603	46.29294
594.799	43.78499
594.995	41.56488
595.192	46.77552
595.388	44.42855
595.584	44.26384
595.78	42.7323
595.977	47.83312
596.173	46.89001
596.369	44.4758
596.565	43.15525
596.761	42.84296
596.957	46.36844
597.154	43.74816
597.35	44.29114
597.546	44.13015
597.742	46.0999
597.938	45.91035
598.134	44.24964
598.33	45.88243
598.526	47.8798
598.722	46.17927
598.918	48.28599
599.114	46.27564
599.31	43.84318
599.506	44.84956
599.702	44.2102
599.898	45.85798
600.094	46.95314
600.29	46.71117
600.485	46.76407
600.681	44.74074
600.877	48.36799
601.073	45.30582
601.269	48.32455
601.465	47.51798
601.66	43.81477
601.856	42.62011
602.052	47.89162
602.248	44.46124
602.443	42.49571
602.639	43.55995
602.835	43.94211
603.03	44.00217
603.226	46.52998
603.422	43.80314
603.617	44.74557
603.813	44.5605
604.009	44.42642
604.204	46.74806
604.4	42.87415
604.595	46.40871
604.791	43.86691
604.986	45.63203
605.182	44.15201
605.377	45.1624
605.573	44.52521
605.768	45.62382
605.964	46.64628
606.159	47.06572
606.355	47.90988
606.55	45.19346
606.746	47.33691
606.941	45.35346
607.136	48.77173
607.332	50.59047
607.527	43.77636
607.722	46.39066
607.918	45.44371
608.113	44.60567
608.308	46.94417
608.503	46.23166
608.699	46.13444
608.894	46.12992
609.089	44.43379
609.284	45.91596
609.479	44.83828
609.675	46.39106
609.87	45.02579
610.065	46.65789
610.26	47.33332
610.455	47.54493
610.65	46.07101
610.845	45.93271
611.04	47.85466
611.235	46.0371
611.43	45.4307
611.625	44.21102
611.82	48.75717
612.015	44.95677
612.21	48.71754
612.405	43.54322
612.6	49.18362
612.795	48.4184
612.99	47.03252
613.185	44.0144
613.38	44.99276
613.575	46.28181
613.77	51.06128
613.965	43.2954
614.159	44.88362
614.354	48.8292
614.549	48.24486
614.744	47.72361
614.938	44.3265
615.133	43.41434
615.328	49.20305
615.523	47.9573
615.717	51.79817
615.912	45.24256
616.107	46.33122
616.301	46.08292
616.496	45.21897
616.691	49.80719
616.885	47.6979
617.08	52.17869
617.274	48.49706
617.469	50.16001
617.664	47.94191
617.858	45.60271
618.053	47.28655
618.247	46.12073
618.442	42.55096
618.636	49.48052
618.831	45.60102
619.025	45.7083
619.219	52.11634
619.414	40.89319
619.608	46.43978
619.803	45.64677
619.997	50.85303
620.191	49.04976
620.386	47.90634
620.58	46.65133
620.774	43.14364
620.969	44.08299
621.163	46.79099
621.357	44.79648
621.551	45.76012
621.746	47.05019
621.94	46.09119
622.134	53.66239
622.328	51.57493
622.522	43.9504
622.716	49.03974
622.911	49.12552
623.105	49.01282
623.299	48.56042
623.493	53.98237
623.687	45.54419
623.881	46.18941
624.075	48.51647
624.269	49.80584
624.463	43.44362
624.657	43.98472
624.851	48.80908
625.045	49.05994
625.239	49.34757
625.433	46.41149
625.627	49.94208
625.821	46.17439
626.015	45.88275
626.209	47.64337
626.403	45.08736
626.596	47.98709
626.79	48.93714
626.984	45.05239
627.178	48.04872
627.372	48.38338
627.565	48.98148
627.759	44.6119
627.953	44.93
628.147	48.43744
628.34	48.97231
628.534	52.51054
628.728	46.95304
628.921	49.26032
629.115	48.73633
629.309	49.58379
629.502	49.5225
629.696	48.08024
629.89	47.46187
630.083	48.21941
630.277	48.75695
630.47	51.94914
630.664	47.0868
630.857	44.19402
631.051	49.47739
631.244	50.69257
631.438	49.15011
631.631	45.36853
631.825	51.20525
632.018	49.37386
632.212	52.29269
632.405	50.48895
632.598	46.43869
632.792	48.04777
632.985	42.91234
633.178	47.19325
633.372	47.836
633.565	47.887
633.758	50.98929
633.952	46.2965
634.145	45.76372
634.338	47.31338
634.531	47.15342
634.724	46.87993
634.918	48.529
635.111	47.73973
635.304	47.14611
635.497	53.77286
635.69	48.69921
635.883	51.05138
636.077	45.84809
636.27	49.34666
636.463	48.68807
636.656	48.8259
636.849	47.46168
637.042	49.7394
637.235	51.96014
637.428	50.09024
637.621	48.94332
637.814	52.39134
638.007	52.05362
638.2	52.28192
638.393	53.07496
638.586	45.54115
638.778	47.99102
638.971	48.92255
639.164	53.46568
639.357	49.7044
639.55	52.59602
639.743	51.06816
639.935	50.38302
640.128	54.03592
640.321	51.01726
640.514	49.76334
640.707	54.88675
640.899	51.15444
641.092	44.8174
641.285	70.42525
641.477	43.79562
641.67	55.8
641.863	53.79989
642.055	50.97031
642.248	49.08058
642.441	49.05617
642.633	50.65525
642.826	52.7919
643.018	53.34839
643.211	54.74189
643.403	54.74609
643.596	56.30072
643.788	54.46833
643.981	49.46548
644.173	52.6092
644.366	49.05345
644.558	45.80474
644.751	53.34419
644.943	45.60359
645.135	54.0729
645.328	55.3553
645.52	51.24183
645.712	53.20787
645.905	59.35439
646.097	46.59478
646.289	50.30236
646.482	56.52464
646.674	48.45982
646.866	53.40871
647.058	52.4617
647.251	47.38577
647.443	48.29522
647.635	50.08706
647.827	46.9234
648.019	47.84795
648.211	49.66786
648.404	49.80969
648.596	55.37288
648.788	50.54422
648.98	51.72007
649.172	51.26782
649.364	51.65227
649.556	45.1848
649.748	58.71705
649.94	47.35074
650.132	52.22291
650.324	47.833
650.516	48.14594
650.708	54.42546
650.9	47.02795
651.092	49.04466
651.284	47.12796
651.476	48.35239
651.667	52.56476
651.859	54.65558
652.051	50.17763
652.243	51.19558
652.435	49.04823
652.627	52.61637
652.818	52.63225
653.01	46.3582
653.202	48.40061
653.394	49.38895
653.585	53.17722
653.777	64.76443
653.969	54.4365
654.16	54.78242
654.352	47.5247
654.544	50.17912
654.735	53.75845
654.927	52.22704
655.118	56.09037
655.31	53.16098
655.502	55.62318
655.693	50.41818
655.885	53.20793
656.076	55.46378
656.268	52.28833
656.459	55.7064
656.651	56.47274
656.842	50.45962
657.034	49.28946
657.225	54.11206
657.416	55.94506
657.608	56.28774
657.799	51.75495
657.99	54.77318
658.182	50.115
658.373	49.21644
658.564	53.83503
658.756	52.54812
658.947	51.55262
659.138	49.49998
659.33	50.33067
659.521	49.85738
659.712	52.0085
659.903	51.61464
660.094	50.68405
660.286	47.92342
660.477	58.10483
660.668	54.54016
660.859	52.71641
661.05	48.24863
661.241	54.63878
661.432	54.39311
661.623	51.86761
661.814	51.20844
662.006	48.36764
662.197	53.8248
662.388	57.22451
662.579	53.62792
662.77	57.5336
662.96	63.35359
663.151	54.9775
663.342	47.22443
663.533	56.20717
663.724	54.02112
663.915	59.67493
664.106	53.20196
664.297	59.73359
664.488	56.51168
664.678	51.26331
664.869	56.37989
665.06	56.89519
665.251	54.46174
665.442	55.03496
665.632	49.60403
665.823	60.3441
666.014	43.87032
666.204	56.59588
666.395	59.515
666.586	63.95571
666.776	57.04269
666.967	60.60346
667.158	54.05742
667.348	58.6364
667.539	50.91608
667.729	57.61443
667.92	51.32337
668.111	57.46886
668.301	55.83351
668.492	53.24826
668.682	54.23489
668.873	53.57403
669.063	50.51555
669.253	55.6493
669.444	58.13649
669.634	55.02057
669.825	62.23342
670.015	59.12473
670.206	51.17275
670.396	62.6407
670.586	54.19882
670.777	56.80694
670.967	47.71092
671.157	54.91065
671.347	51.88177
671.538	60.80871
671.728	56.56768
671.918	63.14996
672.108	59.4731
672.299	55.41303
672.489	58.16103
672.679	52.5342
672.869	56.80638
673.059	63.38659
673.249	57.22188
673.44	52.11446
673.63	55.33538
673.82	59.11398
674.01	52.84766
674.2	57.71254
674.39	68.3601
674.58	59.736
674.77	56.11629
674.96	55.0824
675.15	72.32502
675.34	61.00717
675.53	56.18526
675.72	55.0625
675.91	51.02523
676.099	63.52303
676.289	65.02664
676.479	61.23569
676.669	54.31057
676.859	57.40481
677.049	52.03962
677.238	56.45243
677.428	64.06044
677.618	58.14364
677.808	61.03461
677.997	58.395
678.187	52.74521
678.377	56.35092
678.567	53.86941
678.756	54.02155
678.946	55.19778
679.136	50.27493
679.325	53.41408
679.515	52.12088
679.704	51.25203
679.894	58.14296
680.084	56.80448
680.273	60.03913
680.463	53.2066
680.652	53.00243
680.842	55.6933
681.031	60.74596
681.221	53.61494
681.41	59.07165
681.6	55.90419
681.789	59.22736
681.978	61.92713
682.168	57.86206
682.357	57.8765
682.547	60.3452
682.736	57.83804
682.925	63.10947
683.115	63.5411
683.304	60.94819
683.493	59.52946
683.682	59.95644
683.872	59.69232
684.061	63.23646
684.25	60.03836
684.439	64.63977
684.629	61.03165
684.818	72.72551
685.007	57.67223
685.196	56.61489
685.385	65.63687
685.574	59.86048
685.763	61.20272
685.952	60.23803
686.142	53.38381
686.331	64.93901
686.52	50.68788
686.709	66.67788
686.898	65.3754
687.087	62.9263
687.276	66.4358
687.465	62.78428
687.654	58.04366
687.842	66.49962
688.031	55.2255
688.22	66.12426
688.409	60.71779
688.598	60.86101
688.787	71.81053
688.976	60.50639
689.165	69.07855
689.353	59.16764
689.542	61.9703
689.731	64.24598
689.92	70.52835
690.108	65.56962
690.297	59.42423
690.486	61.71532
690.675	64.98193
690.863	69.00617
691.052	70.15396
691.241	62.63427
691.429	63.73047
691.618	69.36091
691.806	56.27004
691.995	61.41147
692.184	63.0728
692.372	60.4368
692.561	63.98639
692.749	62.67203
692.938	75.26864
693.126	64.79162
693.315	60.21831
693.503	66.47017
693.692	66.05754
693.88	68.34232
694.068	75.17961
694.257	63.28455
694.445	65.81796
694.634	52.78449
694.822	68.36742
695.01	68.71794
695.199	70.07146
695.387	71.4379
695.575	70.48523
695.763	62.94574
695.952	60.63474
696.14	56.64827
696.328	60.7883
696.516	62.88646
696.705	65.82809
696.893	63.83115
697.081	53.86378
697.269	65.61445
697.457	56.69669
697.645	56.30012
697.833	64.9422
698.021	57.05966
698.21	58.62125
698.398	60.6524
698.586	55.4291
698.774	55.84649
698.962	59.8053
699.15	57.16782
699.338	54.61437
699.526	63.67088
699.714	59.41694
699.901	60.63399
700.089	68.05396
700.277	59.59548
700.465	63.07708
700.653	67.59354
700.841	66.51948
701.029	60.24118
701.217	71.80724
701.404	65.82424
701.592	73.74304
701.78	75.52809
701.968	63.35713
702.155	64.80853
702.343	58.11806
702.531	72.57116
702.718	68.02525
702.906	64.23882
703.094	62.19467
703.281	73.26953
703.469	66.17229
703.657	72.17783
703.844	84.66784
704.032	76.74275
704.219	62.18508
704.407	68.79135
704.595	74.42154
704.782	66.77675
704.97	64.05222
705.157	65.2511
705.345	75.17074
705.532	83.50237
705.719	69.22157
705.907	75.41006
706.094	67.54118
706.282	78.81792
706.469	64.90465
706.656	68.09439
706.844	64.64448
707.031	72.70347
707.218	68.49945
707.406	77.5695
707.593	71.6249
707.78	71.30992
707.968	67.648
708.155	62.90739
708.342	70.67698
708.529	71.35088
708.716	67.70441
708.904	78.95567
709.091	72.83646
709.278	62.45082
709.465	82.57279
709.652	79.35473
709.839	76.78745
710.026	70.63629
710.213	59.47073
710.4	72.08562
710.587	73.29636
710.774	77.75407
710.961	76.28341
711.148	68.94653
711.335	76.52021
711.522	67.95671
711.709	71.30506
711.896	84.20709
712.083	74.13961
712.27	65.52945
712.457	70.91256
712.644	61.62702
712.831	82.58235
713.017	70.96476
713.204	74.79479
713.391	67.65968
713.578	78.26634
713.765	79.39456
713.951	72.98162
714.138	92.35269
714.325	75.14399
714.512	72.80771
714.698	66.1894
714.885	82.37651
715.072	73.04284
715.258	71.26546
715.445	67.73748
715.631	80.34271
715.818	54.92854
716.005	67.68888
716.191	75.30236
716.378	69.88025
716.564	78.64755
716.751	66.29141
716.937	70.04973
717.124	81.28099
717.31	67.68411
717.497	84.52953
717.683	68.69229
717.869	93.39312
718.056	70.40395
718.242	76.86161
718.429	71.56332
718.615	66.54567
718.801	75.50191
718.988	81.03231
719.174	77.69608
719.36	74.54443
719.547	84.48278
719.733	76.14251
719.919	80.74299
720.105	81.30259
720.291	74.99156
720.478	76.9966
720.664	75.59498
720.85	73.09246
721.036	98.86041
721.222	87.20509
721.408	75.66425
721.595	92.12429
721.781	89.83695
721.967	83.56288
722.153	91.26411
722.339	81.67197
722.525	78.92188
722.711	68.4965
722.897	68.52851
723.083	72.75597
723.269	84.82624
723.455	96.62605
723.641	101.89156
723.827	79.58736
724.012	82.87021
724.198	74.47625
724.384	90.67605
724.57	85.34024
724.756	66.70187
724.942	63.57703
725.127	86.00227
725.313	88.5518
725.499	88.44748
725.685	93.58884
725.87	83.03887
726.056	70.81615
726.242	90.4417
726.428	65.55604
726.613	85.40764
726.799	75.00669
726.985	69.66641
727.17	64.27538
727.356	91.64632
727.541	69.08589
727.727	76.62736
727.913	84.49623
728.098	72.13755
728.284	84.80944
728.469	67.30204
728.655	72.29419
728.84	84.53778
729.026	85.21365
729.211	82.89316
729.397	80.44858
729.582	84.25326
729.767	78.03679
729.953	80.35719
730.138	86.85142
730.323	61.57881
730.509	71.30564
730.694	92.10275
730.879	81.66074
731.065	78.63968
731.25	96.72176
731.435	83.72205
731.621	65.39832
731.806	72.75424
731.991	80.40707
732.176	66.35499
732.361	90.198
732.547	80.33882
732.732	66.26706
732.917	99.12487
733.102	68.95158
733.287	72.14822
733.472	79.8168
733.657	80.74262
733.842	67.41827
734.027	76.60828
734.212	79.5748
734.397	74.63919
734.582	83.01302
734.767	91.55331
734.952	98.12847
735.137	58.53063
735.322	96.08502
735.507	86.91603
735.692	83.96577
735.877	103.64298
736.062	98.83109
736.247	87.708
736.431	81.36978
736.616	93.11757
736.801	85.72749
736.986	83.5601
737.171	73.72047
737.355	68.19835
737.54	93.83315
737.725	81.55904
737.909	108.40437
738.094	75.46788
738.279	92.06302
738.463	78.10308
738.648	85.50751
738.833	87.86912
739.017	99.5554
739.202	77.24596
739.386	81.92392
739.571	73.51953
739.756	88.22765
739.94	81.40802
740.125	91.66221
740.309	73.99468
740.494	92.48403
740.678	84.08891
740.863	89.00583
741.047	85.30516
741.231	97.55653
741.416	76.21961
741.6	102.11792
741.785	77.68173
741.969	93.24457
742.153	97.00114
742.338	66.43384
742.522	86.27907
742.706	92.60517
742.89	73.70264
743.075	87.50386
743.259	101.85994
743.443	94.22814
743.627	99.99234
743.812	110.4921
743.996	67.64457
744.18	82.82865
744.364	82.37693
744.548	113.07935
744.732	82.03359
744.916	96.65469
745.1	93.94446
745.285	86.37957
745.469	91.72684
745.653	106.99587
745.837	72.0537
746.021	113.59616
746.205	99.68391
746.389	87.2866
746.573	83.98356
746.757	107.37312
746.94	81.06942
747.124	100.75836
747.308	75.07797
747.492	98.24895
747.676	78.93157
747.86	116.10238
748.044	80.0562
748.227	68.25682
748.411	128.01825
748.595	89.37993
748.779	76.29922
748.963	92.01264
749.146	87.59461
749.33	78.70569
749.514	75.50194
749.697	102.29317
749.881	81.52245
750.065	77.78023
750.248	89.12729
750.432	116.34684
750.616	88.60994
750.799	76.13345
750.983	113.46883
751.166	122.30736
751.35	70.82355
751.533	95.5066
751.717	104.6052
751.9	108.39885
752.084	85.03806
752.267	76.78331
752.451	82.33401
752.634	91.42313
752.818	94.24988
753.001	98.63924
753.184	102.32951
753.368	96.59644
753.551	53.85915
753.734	80.67936
753.918	112.28681
754.101	79.40705
754.284	95.62411
754.467	83.82532
754.651	82.27492
754.834	79.51493
755.017	103.18238
755.2	103.53669
755.384	78.61954
755.567	101.2577
755.75	103.44647
755.933	86.84697
756.116	92.73422
756.299	81.63128
756.482	80.54683
756.665	96.51781
756.848	88.42964
757.032	96.28447
757.215	75.07991
757.398	79.09933
757.581	80.02745
757.764	125.43971
757.947	88.84933
758.129	108.48609
758.312	57.94932
758.495	87.56615
758.678	89.32803
758.861	84.83128
759.044	113.51491
759.227	79.09872
759.41	81.72678
759.592	99.02194
759.775	87.25439
759.958	105.19333
760.141	78.26744
760.324	126.05161
760.506	111.34668
760.689	105.24409
760.872	120.99503
761.054	100.55327
761.237	88.8707
761.42	93.8082
761.602	100.86322
761.785	95.72165
761.968	102.56455
762.15	114.9194
762.333	85.73083
762.515	91.71903
762.698	81.95902
762.88	96.27766
763.063	87.13566
763.245	93.03769
763.428	73.54501
763.61	78.14723
763.793	70.10287
763.975	88.5659
764.158	81.99593
764.34	80.79277
764.522	77.38527
764.705	88.01068
764.887	104.61895
765.069	72.48591
765.252	98.22064
765.434	102.8892
765.616	92.20027
765.799	86.2319
765.981	104.18488
766.163	86.48411
766.345	107.57171
766.528	85.72932
766.71	65.33141
766.892	93.60555
767.074	110.27352
767.256	90.64821
767.438	118.627
767.62	102.33
767.802	124.96092
767.985	104.08175
768.167	124.55456
768.349	87.65529
768.531	103.46214
768.713	99.17007
768.895	106.77653
769.077	101.47613
769.259	136.29975
769.441	171.55033
769.623	110.65395
769.804	123.16248
769.986	118.69596
770.168	136.97571
770.35	151.10332
770.532	124.85645
770.714	134.84725
770.896	133.29033
771.077	85.23259
771.259	139.36442
771.441	117.86948
771.623	149.30483
771.804	160.85799
771.986	83.63457
772.168	103.55305
772.35	144.83303
772.531	163.43002
772.713	117.1737
772.894	146.50426
773.076	118.4002
773.258	106.50679
773.439	147.5576
773.621	157.22073
773.802	100.87168
773.984	107.55094
774.166	122.1562
774.347	149.31844
774.529	146.31226
774.71	78.31543
774.891	115.21462
775.073	107.17303
775.254	148.05744
775.436	108.11366
775.617	165.07288
775.799	106.42034
775.98	153.04206
776.161	158.1444
776.343	161.09799
776.524	115.55155
776.705	107.92031
776.886	81.56644
777.068	132.25157
777.249	180.09087
777.43	170.36347
777.611	93.83078
777.793	112.66508
777.974	157.28291
778.155	105.6675
778.336	99.71051
778.517	173.36807
778.698	101.157
778.879	83.83291
779.061	63.35924
779.242	125.97578
779.423	129.92467
779.604	120.29144
779.785	119.3236
779.966	120.07278
780.147	145.97107
780.328	146.21054
780.509	187.1227
780.69	136.95623
780.871	104.14647
781.051	92.93221
781.232	124.23198
781.413	119.36984
781.594	112.6839
781.775	110.94056
781.956	101.59881
782.137	79.56515
782.317	102.9388
782.498	127.32324
782.679	126.10265
782.86	121.4416
783.04	109.14141
783.221	129.55239
783.402	166.6361
783.583	126.15082
783.763	135.768
783.944	110.02244
784.124	87.39283
784.305	160.64477
784.486	132.42665
784.666	119.10756
784.847	90.66263
785.027	184.14891
785.208	106.75201
785.388	109.76202
785.569	114.79739
785.749	114.92499
785.93	106.21562
786.11	87.40644
786.291	135.82277
786.471	123.53315
786.652	135.32363
786.832	115.4676
787.012	126.47105
787.193	94.1571
787.373	124.92032
787.553	108.3837
787.734	122.70693
787.914	110.12397
788.094	131.21996
788.275	126.85447
788.455	112.55204
788.635	89.50793
788.815	121.56811
788.995	97.61068
789.176	84.49486
789.356	99.92257
789.536	114.51706
789.716	130.29658
789.896	103.94856
790.076	106.54749
790.256	122.67193
790.436	72.62349
790.616	100.78032
790.796	125.28027
790.976	109.58632
791.156	99.56368
791.336	138.55022
791.516	132.11358
791.696	116.29982
791.876	85.84977
792.056	121.31716
792.236	138.49676
792.416	138.01891
792.596	129.3668
792.776	131.61474
792.956	131.86566
793.135	151.2741
793.315	98.07499
793.495	147.40741
793.675	135.67286
793.854	138.49564
794.034	143.06596
794.214	94.98024
794.394	136.59836
794.573	153.19011
794.753	126.23585
794.933	98.91826
795.112	124.53769
795.292	138.41374
795.472	165.35816
795.651	90.27876
795.831	113.26774
796.01	111.35728
796.19	115.57487
796.369	119.37923
796.549	131.56718
796.728	114.42488
796.908	88.80365
797.087	93.78103
797.267	106.19985
797.446	97.79179
797.626	135.98349
797.805	132.47747
797.984	100.72658
798.164	139.34625
798.343	97.53368
798.522	123.39408
798.702	123.00027
798.881	92.90017
799.06	116.54524
799.239	81.1734
799.419	101.27942
799.598	157.46037
799.777	132.27898
799.956	156.04604
800.136	110.76445
800.315	102.24573
800.494	133.62392
800.673	149.25181
800.852	137.37236
801.031	147.33749
801.21	137.45804
801.389	118.05366
801.568	125.99489
801.747	170.39524
801.926	127.32943
802.105	158.34666
802.284	109.23448
802.463	163.29363
802.642	130.69685
802.821	126.536
803	154.37827
803.179	145.60676
803.358	156.71126
803.537	109.37096
803.716	133.17818
803.895	108.80876
804.073	122.94935
804.252	103.08202
804.431	133.02861
804.61	119.52547
804.789	146.93514
804.967	111.10675
805.146	110.61059
805.325	169.31047
805.503	136.32518
805.682	89.07414
805.861	186.57818
806.039	154.26968
806.218	115.48051
806.397	126.34837
806.575	123.50104
806.754	131.58005
806.932	97.64138
807.111	159.96253
807.289	145.80936
807.468	124.61669
807.646	151.45774
807.825	141.61621
808.003	128.19453
808.182	151.26609
808.36	125.23991
808.539	106.25016
808.717	161.52648
808.895	111.63533
809.074	131.66784
809.252	127.134
809.43	141.1692
809.609	149.56609
809.787	164.34382
809.965	127.09638
810.144	126.03446
810.322	125.43245
810.5	141.53863
810.678	121.36834
810.856	190.54983
811.035	160.54451
811.213	145.69278
811.391	165.91621
811.569	137.48196
811.747	205.63632
811.925	161.91192
812.103	107.1178
812.281	129.44858
812.459	178.91491
812.637	180.01655
812.816	148.72529
812.994	183.46092
813.171	165.1879
813.349	143.61009
813.527	160.73516
813.705	178.21357
813.883	205.32618
814.061	155.22189
814.239	183.70482
814.417	190.11859
814.595	146.05404
814.773	146.26689
814.95	143.46581
815.128	145.53381
815.306	140.72585
815.484	130.95453
815.662	112.30311
815.839	99.29831
816.017	116.27991
816.195	163.5806
816.372	124.7387
816.55	147.94631
816.728	174.90453
816.905	127.59594
817.083	182.97637
817.261	129.72611
817.438	196.5662
817.616	184.36837
817.793	116.06941
817.971	156.91835
818.148	149.2022
818.326	168.83364
818.503	137.63407
818.681	169.48503
818.858	117.14311
819.036	128.1518
819.213	133.83336
819.391	116.46739
819.568	106.85516
819.745	103.49603
819.923	152.20719
820.1	112.22393
820.277	106.07163
820.455	116.43432
820.632	116.69593
820.809	116.87184
820.986	94.31306
821.164	83.45114
821.341	79.51051
821.518	89.97561
821.695	76.97632
821.872	74.32437
822.05	70.47504
822.227	64.94504
822.404	67.1225
822.581	71.65222
822.758	66.5252
822.935	67.90725
823.112	72.20928
823.289	67.92372
823.466	74.92982
823.643	73.98038
823.82	81.33163
823.997	80.3645
824.174	88.18491
824.351	102.12946
824.528	101.02949
824.705	97.44199
824.882	102.48852
825.059	115.62034
825.236	96.41142
825.412	97.50993
825.589	106.18981
825.766	125.21238
825.943	98.83792
826.12	105.73967
826.296	88.44434
826.473	92.79304
826.65	92.45906
826.827	101.19445
827.003	82.2196
827.18	86.94831
827.357	92.66487
827.533	88.0792
827.71	71.99215
827.887	84.61666
828.063	92.51461
828.24	86.14281
828.416	100.42694
828.593	95.48627
828.769	116.32841
828.946	124.45301
829.122	132.77305
829.299	126.13778
829.475	96.97426
829.652	124.97189
829.828	170.0332
830.005	124.75235
830.181	155.15545
830.357	124.87479
830.534	155.64317
830.71	128.16698
830.886	148.89785
831.063	153.64586
831.239	167.66923
831.415	109.53839
831.592	169.79297
831.768	134.37898
831.944	113.59064
832.12	160.28777
832.296	157.98579
832.473	140.73244
832.649	111.90028
832.825	134.29781
833.001	97.21746
833.177	121.05397
833.353	110.06745
833.529	84.53597
833.705	102.089
833.881	87.73299
834.058	87.84172
834.234	92.37249
834.41	91.42087
834.586	84.68002
834.761	92.70949
834.937	99.71818
835.113	104.06191
835.289	100.24237
835.465	112.13757
835.641	104.79803
835.817	115.23897
835.993	164.2758
836.169	109.64354
836.344	137.21327
836.52	149.898
836.696	140.68535
836.872	123.04121
837.048	230.26124
837.223	131.71304
837.399	201.39334
837.575	169.80047
837.75	166.06725
837.926	190.96962
838.102	267.27318
838.277	232.98273
838.453	264.90687
838.628	253.57439
838.804	152.62474
838.98	266.83866
839.155	149.23792
839.331	185.25293
839.506	144.10382
839.682	146.27881
839.857	171.40066
840.033	190.20447
840.208	130.4401
840.384	89.00676
840.559	129.07989
840.734	165.48002
840.91	211.16053
841.085	147.68684
841.26	148.59238
841.436	138.13431
841.611	149.71851
841.786	210.49367
841.962	233.98162
842.137	170.94419
842.312	136.77034
842.487	156.03135
842.663	135.32406
842.838	162.88984
843.013	342.40274
843.188	209.87903
843.363	186.54863
843.538	331.02453
843.714	317.75404
843.889	321.46098
844.064	327.37149
844.239	295.87392
844.414	329.80205
844.589	247.37104
844.764	361.1849
844.939	349.24099
845.114	449.16635
845.289	372.04816
845.464	427.46965
845.639	341.69487
845.814	236.82041
845.989	239.51993
846.163	251.2768
846.338	293.44621
846.513	388.29595
846.688	276.04747
846.863	271.39638
847.038	247.71714
847.212	265.69802
847.387	295.49742
847.562	300.56666
847.737	304.76729
847.911	162.24645
848.086	205.47245
848.261	511.74714
848.435	262.22805
848.61	364.19796
848.785	205.92815
848.959	335.27612
849.134	445.27374
849.308	550.9431
849.483	279.78902
849.658	397.15327
849.832	278.2708
850.007	242.74926
850.181	466.92641
850.356	237.3216
850.53	436.89961
850.705	202.61315
850.879	155.08244
851.053	321.43979
851.228	258.60396
851.402	336.23798
851.577	406.66536
851.751	376.1827
851.925	312.55776
852.099	164.53944
852.274	233.97566
852.448	288.69178
852.622	305.55018
852.797	285.07401
852.971	277.37472
853.145	321.99696
853.319	521.64245
853.493	409.37754
853.668	260.27494
853.842	441.81878
854.016	370.41291
854.19	478.88802
854.364	328.66408
854.538	320.90772
854.712	405.53804
854.886	316.60259
855.06	273.74376
855.234	133.12004
855.408	456.46445
855.582	396.49346
855.756	384.90549
855.93	456.13991
856.104	342.23764
856.278	386.70955
856.452	311.2465
856.626	343.1933
856.8	499.82047
856.973	365.77228
857.147	314.9598
857.321	323.88741
857.495	406.18539
857.669	296.93493
857.842	267.51956
858.016	443.32113
858.19	227.31892
858.364	657.20665
858.537	275.04023
858.711	305.37782
858.885	256.8323
859.058	240.11917
859.232	163.15406
859.405	195.12425
859.579	401.45376
859.753	310.77829
859.926	239.24618
860.1	198.37121
860.273	274.81441
860.447	495.98324
860.62	280.92298
860.794	504.67552
860.967	314.48896
861.141	426.56802
861.314	528.0992
861.487	356.61578
861.661	441.35809
861.834	455.66397
862.008	379.01754
862.181	329.10127
862.354	326.75975
862.528	372.14307
862.701	236.9913
862.874	185.54238
863.047	270.08574
863.221	292.91679
863.394	159.17804
863.567	408.9095
863.74	142.46539
863.913	397.09928
864.087	347.80054
864.26	367.54126
864.433	283.26555
864.606	533.21816
864.779	300.32726
864.952	178.81846
865.125	248.56605
865.298	295.93407
865.471	317.54047
865.644	467.32335
865.817	406.97536
865.99	359.73949
866.163	437.89623
866.336	268.24143
866.509	291.10313
866.682	247.31399
866.855	399.86601
867.028	213.71445
867.2	356.46194
867.373	165.05471
867.546	326.52273
867.719	482.28079
867.892	311.65875
868.064	233.12156
868.237	333.26611
868.41	367.86554
868.583	195.29226
868.755	197.48045
868.928	271.33451
869.101	509.48227
869.273	380.06357
869.446	334.89806
869.619	403.36519
869.791	263.06669
869.964	395.31453
870.136	343.7211
870.309	325.87524
870.481	310.23755
870.654	191.87775
870.826	309.77276
870.999	269.37238
871.171	359.70086
871.344	239.90596
871.516	282.28208
871.689	217.16884
871.861	310.87702
872.033	230.06781
872.206	279.76101
872.378	388.18865
872.55	266.49301
872.723	193.77467
872.895	241.55495
873.067	414.04194
873.24	371.50908
873.412	247.97461
873.584	285.43424
873.756	261.16013
873.928	315.29001
874.101	312.4994
874.273	307.76036
874.445	158.31304
874.617	209.21551
874.789	304.15163
874.961	274.30722
875.133	336.17137
875.305	300.15567
875.477	208.57148
875.649	176.76472
875.821	220.6063
875.993	404.48817
876.165	204.32428
876.337	304.48528
876.509	287.05268
876.681	303.39004
876.853	327.63111
877.025	313.10033
877.197	238.04912
877.369	206.02441
877.541	344.18526
877.712	153.05151
877.884	197.14681
878.056	307.3804
878.228	189.38483
878.4	312.80917
878.571	197.97566
878.743	158.01732
878.915	260.42481
879.086	193.27597
879.258	217.17683
879.43	187.61656
879.601	172.48535
879.773	178.66852
879.945	84.14254
880.116	103.05023
880.288	81.19918
880.459	84.94054
880.631	75.57649
880.802	80.99419
880.974	80.76973
881.145	69.1267
881.317	78.24343
881.488	72.67763
881.66	75.65053
881.831	72.36423
882.002	83.21978
882.174	75.81424
882.345	84.40105
882.517	70.67458
882.688	96.21896
882.859	89.58727
883.03	115.73195
883.202	115.08606
883.373	112.6644
883.544	111.45542
883.715	147.15608
883.887	135.84358
884.058	121.24552
884.229	155.20909
884.4	152.88962
884.571	168.99075
884.742	147.37487
884.914	153.75812
885.085	186.56558
885.256	233.16654
885.427	201.94982
885.598	219.21717
885.769	224.39119
885.94	226.73543
886.111	182.43194
886.282	261.8123
886.453	207.00859
886.624	179.66277
886.795	266.54148
886.966	219.88637
887.136	268.05011
887.307	211.6246
887.478	317.24656
887.649	297.51688
887.82	282.72345
887.991	255.81868
888.161	330.99065
888.332	292.22114
888.503	189.57541
888.674	382.24915
888.844	402.99308
889.015	344.86644
889.186	191.91
889.356	390.4026
889.527	175.91075
889.698	557.61353
889.868	230.22232
890.039	309.71601
890.209	255.419
890.38	323.32517
890.551	274.18544
890.721	384.13573
890.892	342.20441
891.062	262.66458
891.233	313.02822
891.403	234.4865
891.574	201.86437
891.744	280.62926
891.914	276.70624
892.085	268.38105
892.255	135.74446
892.425	361.6412
892.596	285.9453
892.766	302.70496
892.936	344.40905
893.107	314.46392
893.277	216.26249
893.447	172.32492
893.618	140.74686
893.788	217.19037
893.958	142.61633
894.128	143.81447
894.298	149.74893
894.468	179.83375
894.639	114.02707
894.809	99.48361
894.979	118.46484
895.149	137.5444
895.319	119.82918
895.489	150.25911
895.659	179.2197
895.829	145.55137
895.999	153.82486
896.169	135.33779
896.339	157.35699
896.509	262.59593
896.679	275.50104
896.849	291.59252
897.019	349.1303
897.189	264.61461
897.358	247.44983
897.528	345.76589
897.698	176.19527
897.868	305.51738
898.038	482.03931
898.208	451.36109
898.377	182.63813
898.547	406.7177
898.717	549.8014
898.886	312.15535
899.056	477.4182
899.226	547.4522
899.395	384.04731
899.565	527.62383
899.735	368.88862
899.904	570.71326
900.074	447.29956
900.244	237.98609
900.413	671.85325
900.583	216.3177
900.752	360.74462
900.922	480.28562
901.091	107.15605
901.261	395.87507
901.43	423.78678
901.599	388.51789
901.769	771.76562
901.938	555.43011
902.108	439.82832
902.277	524.84513
902.446	188.46628
902.616	221.53067
902.785	273.15945
902.954	433.22629
903.124	268.04755
903.293	214.02935
903.462	154.55095
903.631	196.50608
903.801	154.35035
903.97	109.25468
904.139	147.89793
904.308	123.36586
904.477	112.98986
904.646	93.90751
904.816	116.8477
904.985	151.92051
905.154	211.98567
