Data from WindowProjectSample3_Transmission__40__00040.txt Node

Date: Sun May 04 11:06:49 EDT 2025
User: jessi
Spectrometer: SR400872
Trigger mode: 0
Integration Time (sec): 5.000050E-1
Scans to average: 20
Electric dark correction enabled: true
Nonlinearity correction enabled: true
Boxcar width: 0
XAxis mode: Wavelengths
Number of Pixels in Spectrum: 3648
>>>>>Begin Spectral Data<<<<<
184.909	-1282.72984
185.132	-1476.82388
185.355	-1155.26247
185.578	-1055.23615
185.801	1168.63118
186.024	-946.54219
186.247	-4927.04954
186.47	-1846.09174
186.693	-407.98713
186.916	-468.99925
187.139	-801.29108
187.362	-2794.0884
187.585	-717.20309
187.808	-5079.00037
188.031	8928.13024
188.254	-2268.28116
188.476	-8476.56545
188.699	-1029.00329
188.922	632.83022
189.145	-1229.35483
189.368	3327.85483
189.591	-2277.15389
189.813	-1418.50923
190.036	-884.50155
190.259	-1162.11424
190.482	-1629.90508
190.705	-2317.97075
190.927	-704.65498
191.15	-1527.15576
191.373	-1059.52827
191.595	-1266.90859
191.818	-1305.02514
192.041	-621.52566
192.263	-1123.23065
192.486	-604.73867
192.709	-1562.69569
192.931	-3255.99814
193.154	-1160.92466
193.377	-1641.60208
193.599	-3389.8475
193.822	-3654.60915
194.044	-3131.15323
194.267	-1799.78225
194.489	-2.83872
194.712	-953.97451
194.934	-1710.41254
195.157	-689.91035
195.379	-1236.76791
195.602	-863.5757
195.824	-1356.22372
196.047	-2083.80472
196.269	-1076.64809
196.492	-1392.7775
196.714	-1265.20414
196.936	-1247.52535
197.159	-902.63013
197.381	-746.16608
197.604	-430.86002
197.826	-2068.7583
198.048	-1123.17161
198.271	-1629.31768
198.493	-1194.79439
198.715	-928.40927
198.938	-3232.60571
199.16	-4111.11606
199.382	-1239.65318
199.604	-1209.08476
199.827	-1913.06804
200.049	-1705.29151
200.271	-1230.03124
200.493	-1395.68854
200.715	-985.2446
200.938	-856.27621
201.16	-930.69906
201.382	-1012.73577
201.604	-1243.16932
201.826	-722.27703
202.048	-806.04267
202.27	-1416.37021
202.492	-1462.50601
202.715	-1917.95517
202.937	-2047.76889
203.159	-1344.19527
203.381	-1550.62159
203.603	-993.04139
203.825	-5255.52099
204.047	-1607.56516
204.269	-1396.81094
204.491	-1252.0786
204.713	-1517.97204
204.935	-1441.61696
205.156	-2725.83895
205.378	-2918.09561
205.6	-1551.35072
205.822	-1101.40356
206.044	1387.51006
206.266	-1312.35068
206.488	-935.4823
206.71	-1712.84331
206.932	-1843.14985
207.153	-1108.90792
207.375	-1399.64202
207.597	-1100.91604
207.819	-1125.41735
208.041	-1209.65499
208.262	-1648.56707
208.484	-867.2537
208.706	-2178.80968
208.927	-780.36435
209.149	-1362.94788
209.371	-1212.32366
209.593	-1463.39708
209.814	-576.93993
210.036	-939.1433
210.258	-787.60539
210.479	-1009.3405
210.701	-1809.33263
210.922	-1240.69549
211.144	-998.3125
211.366	-1111.28933
211.587	881.22255
211.809	-1122.139
212.03	-6377.08088
212.252	942.12066
212.473	-918.96599
212.695	-19520.69569
212.916	-3354.92998
213.138	-1505.42321
213.359	-940.87827
213.581	-1489.58322
213.802	-850.3457
214.024	-1357.34271
214.245	-11348.75353
214.466	-694.51924
214.688	-1468.28627
214.909	-1062.71437
215.131	-2670.49588
215.352	-3553.05683
215.573	-1068.55284
215.795	-1843.99654
216.016	-1476.70387
216.237	-3089.90771
216.459	-1404.81368
216.68	-1067.15903
216.901	-1499.96341
217.122	11955.96599
217.344	-987.14142
217.565	-1350.79646
217.786	-1340.02118
218.007	-904.99386
218.228	-1269.15418
218.45	-1156.00075
218.671	-1131.36261
218.892	-1005.53706
219.113	-1553.91142
219.334	-99.67147
219.555	-1473.80677
219.776	-1574.27851
219.997	-1258.43357
220.219	17987.44339
220.44	-1196.71258
220.661	-3399.40028
220.882	-958.99307
221.103	1633.12231
221.324	-2781.11357
221.545	-1151.70903
221.766	-1315.17632
221.987	-1898.95963
222.208	-2065.42333
222.429	-761.37613
222.65	-1074.61732
222.87	-1648.31322
223.091	-3625.04078
223.312	2887.21464
223.533	-1157.16807
223.754	-1552.01839
223.975	-2244.69795
224.196	9018.13838
224.417	-7945.55542
224.637	4320.23912
224.858	135.33128
225.079	-1921.97344
225.3	26088.49975
225.521	-1023.91967
225.741	-5228.45501
225.962	7082.94558
226.183	322.10277
226.404	-3630.14132
226.624	2423.41994
226.845	-82653.50205
227.066	-647322.2892
227.286	887.95093
227.507	309.0046
227.728	284.17437
227.948	673.82126
228.169	171.2721
228.389	176.92175
228.61	103.24653
228.831	129.33095
229.051	11.63285
229.272	72.2882
229.492	104.15635
229.713	29.45415
229.933	70.83351
230.154	63.09773
230.374	100.93859
230.595	71.44751
230.815	41.23329
231.036	77.02433
231.256	-10.90812
231.477	128.03512
231.697	75.08815
231.917	80.42147
232.138	118.75146
232.358	238.28943
232.579	189.35927
232.799	32.74409
233.019	196.11622
233.24	230.03889
233.46	82.72264
233.68	118.35093
233.901	76.00417
234.121	53.55901
234.341	24.96334
234.561	-6.20375
234.782	38.10857
235.002	132.30764
235.222	3.1176
235.442	123.7634
235.662	57.917
235.883	114.86139
236.103	96.78368
236.323	60.92571
236.543	50.63215
236.763	75.68749
236.983	83.00431
237.203	82.29199
237.423	113.38663
237.643	171.91526
237.864	152.02003
238.084	37.569
238.304	48.42437
238.524	83.27738
238.744	75.21225
238.964	131.88338
239.184	114.64685
239.404	124.23667
239.624	65.01515
239.843	112.53456
240.063	64.34948
240.283	43.20104
240.503	46.4342
240.723	44.68591
240.943	27.71595
241.163	35.80597
241.383	17.33504
241.603	12.82263
241.822	15.04644
242.042	10.6266
242.262	14.20448
242.482	15.59462
242.702	16.61035
242.921	5.46917
243.141	11.46355
243.361	10.5054
243.581	15.32606
243.8	12.2984
244.02	8.44493
244.24	15.18465
244.459	14.02884
244.679	29.69126
244.899	18.41056
245.118	22.60404
245.338	21.14737
245.558	23.13204
245.777	14.07322
245.997	17.37113
246.216	17.86613
246.436	9.96434
246.655	7.31833
246.875	5.75016
247.094	10.31893
247.314	3.81346
247.533	6.13801
247.753	6.8319
247.972	5.51854
248.192	2.47965
248.411	3.48041
248.631	5.51539
248.85	6.69074
249.07	6.81355
249.289	9.62517
249.508	6.75914
249.728	11.51212
249.947	11.43461
250.166	14.88168
250.386	7.61048
250.605	10.86058
250.824	18.88898
251.044	13.03118
251.263	39.7293
251.482	22.6346
251.701	19.26347
251.921	0.47553
252.14	5.89659
252.359	7.38834
252.578	16.39231
252.798	5.95245
253.017	14.1759
253.236	7.48407
253.455	8.31594
253.674	18.44555
253.893	8.26687
254.112	13.16219
254.331	19.3143
254.551	16.04995
254.77	8.57639
254.989	22.06438
255.208	17.67763
255.427	26.57995
255.646	23.02249
255.865	33.23232
256.084	14.90716
256.303	18.52314
256.522	22.30715
256.741	5.99324
256.96	5.97758
257.179	15.07145
257.397	18.67199
257.616	9.91108
257.835	10.69831
258.054	24.66028
258.273	17.42201
258.492	17.09648
258.711	10.993
258.93	5.14609
259.148	7.58561
259.367	7.09425
259.586	9.45418
259.805	4.17189
260.023	7.70061
260.242	5.61259
260.461	4.42952
260.68	2.45958
260.898	6.4707
261.117	2.33076
261.336	1.59089
261.554	5.47583
261.773	5.40943
261.992	1.69203
262.21	5.55239
262.429	6.2493
262.648	11.01137
262.866	12.98756
263.085	8.99696
263.303	8.11199
263.522	14.42884
263.74	13.79222
263.959	24.12691
264.178	12.76708
264.396	11.06166
264.615	7.95845
264.833	18.16946
265.051	15.3701
265.27	17.57659
265.488	18.14681
265.707	10.46577
265.925	17.66194
266.144	9.00752
266.362	9.54572
266.58	9.8861
266.799	7.91681
267.017	9.5391
267.235	8.80605
267.454	5.76496
267.672	2.96973
267.89	7.2325
268.109	7.33909
268.327	7.42545
268.545	1.60979
268.763	6.80936
268.982	3.21244
269.2	7.73134
269.418	5.34366
269.636	4.35081
269.854	7.45738
270.073	5.50767
270.291	3.41778
270.509	3.09293
270.727	7.32758
270.945	11.79603
271.163	11.71672
271.381	2.68274
271.599	5.11323
271.817	8.06582
272.036	3.13922
272.254	5.6906
272.472	4.12186
272.69	4.09435
272.908	4.10171
273.126	6.33576
273.344	8.40691
273.562	2.91535
273.779	4.43823
273.997	6.8261
274.215	6.42049
274.433	4.85208
274.651	7.37484
274.869	7.26798
275.087	4.50508
275.305	6.39157
275.523	4.47366
275.74	4.90608
275.958	8.87225
276.176	12.77281
276.394	4.12833
276.612	5.60819
276.829	5.32921
277.047	4.8125
277.265	5.04929
277.483	5.51271
277.7	6.60629
277.918	5.74577
278.136	10.38472
278.353	5.14301
278.571	2.95087
278.789	8.07073
279.006	2.15005
279.224	4.72939
279.442	7.92909
279.659	5.87333
279.877	3.91921
280.094	8.6886
280.312	1.9647
280.529	5.93745
280.747	2.09068
280.964	4.82091
281.182	9.15472
281.399	4.88492
281.617	5.95655
281.834	4.40638
282.052	3.06104
282.269	5.2193
282.487	4.48592
282.704	3.83317
282.921	3.61576
283.139	5.47006
283.356	6.82164
283.574	6.62284
283.791	3.15714
284.008	8.50937
284.226	5.00653
284.443	5.65654
284.66	7.06141
284.877	5.95381
285.095	3.67364
285.312	2.72133
285.529	1.80362
285.746	1.56579
285.964	3.6161
286.181	2.26591
286.398	3.24759
286.615	4.4227
286.832	4.23242
287.05	1.03043
287.267	3.01099
287.484	3.08339
287.701	4.58376
287.918	4.19028
288.135	4.36337
288.352	2.04798
288.569	2.48552
288.786	4.26008
289.003	3.16005
289.22	5.02247
289.437	2.88334
289.654	4.71015
289.871	4.88665
290.088	4.76831
290.305	3.87453
290.522	3.21919
290.739	3.35871
290.956	4.97435
291.173	5.94376
291.39	5.5073
291.607	3.6916
291.824	3.14252
292.04	2.28047
292.257	4.87403
292.474	5.3937
292.691	3.61887
292.908	1.75581
293.125	3.06405
293.341	1.91429
293.558	8.08704
293.775	3.58292
293.992	3.53166
294.208	1.45113
294.425	2.36251
294.642	2.92576
294.858	5.05186
295.075	1.22336
295.292	3.36141
295.508	4.15354
295.725	5.80195
295.942	2.94509
296.158	2.23174
296.375	3.59413
296.591	2.88483
296.808	2.79606
297.024	3.41236
297.241	3.69885
297.458	3.93891
297.674	0.62654
297.891	3.21792
298.107	2.52764
298.323	1.9729
298.54	4.53763
298.756	2.35264
298.973	1.15212
299.189	4.88336
299.406	2.30009
299.622	4.96151
299.838	4.93972
300.055	4.5423
300.271	1.31949
300.487	2.09551
300.704	2.36513
300.92	1.66759
301.136	6.51798
301.353	5.15844
301.569	3.73867
301.785	4.00407
302.001	4.57474
302.218	4.30802
302.434	4.70935
302.65	1.92514
302.866	3.00131
303.083	7.09261
303.299	6.93647
303.515	3.86015
303.731	4.157
303.947	1.90545
304.163	2.90386
304.379	4.05935
304.595	4.38073
304.812	2.87931
305.028	2.7749
305.244	3.1076
305.46	4.66605
305.676	5.13086
305.892	5.91144
306.108	4.69046
306.324	3.53326
306.54	6.81239
306.756	4.57757
306.972	4.41335
307.187	3.65946
307.403	6.39286
307.619	3.16176
307.835	5.68665
308.051	5.92505
308.267	2.74406
308.483	5.71582
308.699	4.82619
308.914	3.88986
309.13	3.99573
309.346	1.82673
309.562	2.63932
309.778	1.8904
309.993	4.81043
310.209	4.08771
310.425	2.17031
310.641	3.51158
310.856	2.70177
311.072	2.51566
311.288	3.77641
311.503	4.04092
311.719	1.59597
311.935	1.45104
312.15	4.43896
312.366	4.12691
312.581	4.59778
312.797	3.94627
313.013	5.0043
313.228	3.02007
313.444	3.8035
313.659	2.68581
313.875	4.54775
314.09	3.82629
314.306	6.1447
314.521	5.06313
314.737	5.16406
314.952	4.47887
315.168	4.49797
315.383	4.653
315.599	3.94196
315.814	3.77152
316.029	5.61186
316.245	2.36332
316.46	1.88764
316.675	6.02253
316.891	7.05636
317.106	8.68625
317.321	5.04028
317.537	4.92778
317.752	5.46562
317.967	5.51045
318.183	3.42257
318.398	3.85246
318.613	5.97459
318.828	6.52733
319.043	5.74158
319.259	3.95368
319.474	4.66807
319.689	6.26227
319.904	1.68472
320.119	5.75291
320.334	4.89012
320.549	4.1742
320.765	6.29098
320.98	4.90336
321.195	5.70102
321.41	4.69305
321.625	5.87362
321.84	7.31595
322.055	7.30156
322.27	3.59874
322.485	3.00304
322.7	5.04772
322.915	6.29851
323.13	3.47659
323.345	6.9165
323.56	5.52647
323.775	5.70474
323.989	5.53471
324.204	5.00031
324.419	5.96359
324.634	2.75966
324.849	4.33235
325.064	7.71056
325.279	6.0834
325.493	5.38693
325.708	6.09357
325.923	3.49452
326.138	3.82641
326.352	7.17227
326.567	5.8452
326.782	4.15503
326.997	3.62224
327.211	5.71144
327.426	5.16983
327.641	4.26089
327.855	2.21693
328.07	5.60076
328.285	7.46837
328.499	4.29775
328.714	5.21972
328.928	5.79084
329.143	4.98394
329.358	6.71905
329.572	6.3991
329.787	6.86098
330.001	9.06243
330.216	2.92658
330.43	7.77991
330.645	7.41357
330.859	6.36562
331.074	3.78314
331.288	4.87162
331.503	7.54961
331.717	3.36123
331.931	4.87337
332.146	5.29724
332.36	8.0855
332.575	5.72339
332.789	5.25696
333.003	5.03763
333.218	5.84124
333.432	4.0506
333.646	6.50263
333.86	7.59686
334.075	8.10579
334.289	4.32279
334.503	3.39294
334.717	5.92849
334.932	5.57599
335.146	6.19822
335.36	4.19829
335.574	5.55007
335.788	5.38189
336.003	6.30957
336.217	6.26088
336.431	5.80327
336.645	4.62404
336.859	3.71151
337.073	5.37282
337.287	5.89106
337.501	3.9663
337.715	6.16925
337.929	6.33418
338.143	3.5983
338.357	4.94313
338.571	4.33486
338.785	6.16963
338.999	4.3411
339.213	4.359
339.427	3.27525
339.641	6.94968
339.855	4.32962
340.069	4.01645
340.283	6.6517
340.497	7.48467
340.711	6.06686
340.924	5.02264
341.138	3.79841
341.352	3.34231
341.566	5.21811
341.78	2.74722
341.993	4.39263
342.207	4.0323
342.421	5.77661
342.635	4.92476
342.848	4.34828
343.062	2.03386
343.276	4.16546
343.49	8.22468
343.703	4.44821
343.917	6.59931
344.131	6.59436
344.344	4.34881
344.558	4.47498
344.771	3.66119
344.985	6.74129
345.199	7.74811
345.412	5.7081
345.626	5.74082
345.839	2.785
346.053	3.71227
346.266	3.8333
346.48	6.00616
346.693	5.57864
346.907	5.89224
347.12	3.90636
347.334	5.41145
347.547	5.76383
347.76	5.01856
347.974	6.82809
348.187	5.5548
348.401	4.98335
348.614	4.24902
348.827	4.80918
349.041	6.17434
349.254	2.89473
349.467	5.1197
349.681	3.98868
349.894	4.48653
350.107	7.10221
350.32	8.16589
350.534	3.15721
350.747	4.75167
350.96	3.97174
351.173	4.19481
351.386	4.53047
351.6	4.42213
351.813	4.64398
352.026	5.13184
352.239	3.7122
352.452	4.99
352.665	6.88952
352.878	4.81491
353.092	8.26167
353.305	6.2395
353.518	5.23079
353.731	4.19055
353.944	6.62451
354.157	4.62755
354.37	4.42987
354.583	3.87887
354.796	3.36033
355.009	6.80543
355.222	5.45162
355.435	5.25078
355.647	6.83589
355.86	4.09406
356.073	5.29477
356.286	4.72547
356.499	6.49175
356.712	6.34062
356.925	5.92246
357.138	6.71165
357.35	4.06679
357.563	4.76859
357.776	5.33448
357.989	5.3017
358.201	5.93778
358.414	5.75265
358.627	6.75341
358.84	5.06954
359.052	3.80921
359.265	4.20359
359.478	6.44327
359.69	2.23044
359.903	6.60832
360.116	6.68011
360.328	3.51019
360.541	6.52859
360.753	4.70606
360.966	4.99015
361.179	5.30628
361.391	5.00847
361.604	4.44954
361.816	4.85674
362.029	4.76819
362.241	4.2364
362.454	4.98616
362.666	4.40276
362.879	5.64474
363.091	4.85346
363.304	4.41662
363.516	5.04152
363.728	3.9051
363.941	6.00461
364.153	5.21768
364.366	2.90293
364.578	4.07281
364.79	5.99163
365.003	5.45712
365.215	4.81265
365.427	6.14571
365.639	6.84552
365.852	5.6539
366.064	7.36662
366.276	5.01477
366.488	5.90721
366.701	5.30131
366.913	5.15925
367.125	5.33474
367.337	4.79232
367.549	4.90265
367.762	5.37296
367.974	5.31303
368.186	5.03768
368.398	6.6518
368.61	6.32844
368.822	6.437
369.034	5.37697
369.246	6.60972
369.458	8.92203
369.67	4.66597
369.882	8.21689
370.094	3.32464
370.306	7.64042
370.518	5.28188
370.73	5.27337
370.942	5.19925
371.154	5.76408
371.366	5.44278
371.578	6.48851
371.79	5.37604
372.002	7.12769
372.214	8.27994
372.425	6.03385
372.637	7.64398
372.849	6.34991
373.061	3.34745
373.273	6.59803
373.484	6.45099
373.696	6.9479
373.908	3.35153
374.12	7.4249
374.331	6.64702
374.543	5.17772
374.755	4.91129
374.967	6.32842
375.178	7.38822
375.39	5.85002
375.602	6.29862
375.813	4.58727
376.025	5.04357
376.236	6.19571
376.448	6.66284
376.66	6.08913
376.871	6.0591
377.083	7.43158
377.294	8.14926
377.506	5.71925
377.717	8.00172
377.929	6.58462
378.14	5.79468
378.352	7.11918
378.563	7.10084
378.775	7.88037
378.986	5.39624
379.197	6.34226
379.409	5.52948
379.62	7.4152
379.832	6.83945
380.043	6.42247
380.254	6.99859
380.466	5.11375
380.677	9.90357
380.888	9.17308
381.1	9.87075
381.311	9.89677
381.522	7.0107
381.733	10.26843
381.945	6.61183
382.156	6.73025
382.367	6.27525
382.578	10.21803
382.789	10.55125
383.001	6.25774
383.212	9.12964
383.423	9.21237
383.634	8.48079
383.845	7.98944
384.056	6.75745
384.267	7.2849
384.478	7.24372
384.69	5.87065
384.901	7.89419
385.112	7.56997
385.323	9.60118
385.534	7.65989
385.745	7.78138
385.956	7.89152
386.167	6.33127
386.378	8.1942
386.588	6.39795
386.799	6.57959
387.01	5.90395
387.221	8.59698
387.432	7.5362
387.643	9.74428
387.854	7.20334
388.065	7.18906
388.275	7.44409
388.486	6.99289
388.697	7.70134
388.908	7.24856
389.119	9.09338
389.329	9.75907
389.54	8.00032
389.751	8.45483
389.962	9.43483
390.172	8.17728
390.383	7.676
390.594	7.49077
390.804	7.37035
391.015	7.78152
391.226	8.38021
391.436	9.00989
391.647	8.56289
391.858	9.00506
392.068	6.50824
392.279	7.08407
392.489	8.5789
392.7	9.25088
392.91	7.35337
393.121	7.41766
393.331	8.87775
393.542	9.83164
393.752	9.01135
393.963	9.01687
394.173	8.91349
394.384	9.33106
394.594	8.67012
394.804	7.36168
395.015	8.70723
395.225	9.25996
395.436	7.19653
395.646	9.0256
395.856	8.01903
396.067	6.99324
396.277	9.51815
396.487	9.20668
396.697	9.02496
396.908	9.56533
397.118	9.55522
397.328	9.02367
397.538	9.91843
397.749	8.15459
397.959	10.08606
398.169	9.52895
398.379	7.46813
398.589	9.55929
398.8	9.40554
399.01	9.42077
399.22	8.61661
399.43	11.49695
399.64	9.07588
399.85	9.56022
400.06	9.19919
400.27	8.25589
400.48	8.97932
400.69	10.62976
400.9	8.47466
401.11	8.03235
401.32	10.1234
401.53	8.62763
401.74	11.15043
401.95	9.92387
402.16	8.80404
402.37	10.0228
402.58	8.9319
402.79	10.06484
403	10.63542
403.209	8.86178
403.419	10.79652
403.629	9.01338
403.839	10.83741
404.049	10.74123
404.258	9.31175
404.468	8.76823
404.678	10.5767
404.888	10.85507
405.097	9.27422
405.307	9.63662
405.517	10.39963
405.727	10.09408
405.936	9.28149
406.146	9.79314
406.356	11.12369
406.565	9.69892
406.775	9.10483
406.984	9.15097
407.194	11.69455
407.404	9.66097
407.613	10.18277
407.823	10.5475
408.032	11.23472
408.242	10.97218
408.451	9.30204
408.661	9.67491
408.87	12.03226
409.08	9.44531
409.289	10.5691
409.499	10.47219
409.708	10.39375
409.918	8.07503
410.127	10.398
410.336	11.8779
410.546	10.84929
410.755	9.73841
410.964	9.59708
411.174	9.14295
411.383	10.62078
411.592	10.35856
411.802	8.95173
412.011	10.99902
412.22	10.14329
412.429	11.38941
412.639	11.75075
412.848	11.52785
413.057	12.26854
413.266	11.5662
413.475	10.48248
413.685	11.0813
413.894	11.54753
414.103	11.72711
414.312	11.39639
414.521	10.37334
414.73	10.91627
414.939	12.66667
415.148	11.4281
415.357	11.09976
415.566	10.72761
415.776	10.65167
415.985	10.60673
416.194	11.77575
416.403	12.98651
416.611	9.9798
416.82	10.78112
417.029	11.27792
417.238	10.81313
417.447	10.51329
417.656	11.02841
417.865	10.72572
418.074	11.20865
418.283	11.35695
418.492	12.5538
418.7	12.09068
418.909	13.09831
419.118	11.65423
419.327	12.00586
419.536	11.63745
419.744	11.27859
419.953	12.6179
420.162	12.51791
420.371	11.23696
420.579	11.06537
420.788	12.12648
420.997	12.12934
421.205	11.94118
421.414	11.54183
421.623	11.42918
421.831	10.95477
422.04	11.82983
422.249	10.87903
422.457	11.6153
422.666	11.03624
422.874	12.15349
423.083	12.32985
423.291	12.36757
423.5	12.09594
423.708	12.05281
423.917	12.64303
424.125	11.83088
424.334	11.59081
424.542	13.46175
424.751	12.52347
424.959	12.2283
425.167	12.56002
425.376	12.37982
425.584	11.68654
425.793	12.04323
426.001	10.96535
426.209	12.21308
426.418	11.05474
426.626	11.16892
426.834	10.9958
427.042	11.49433
427.251	11.094
427.459	12.40066
427.667	11.72326
427.875	10.45697
428.084	11.17301
428.292	12.76681
428.5	12.19307
428.708	10.72366
428.916	10.99834
429.124	11.94655
429.333	11.69602
429.541	11.70793
429.749	12.08484
429.957	11.96848
430.165	14.16329
430.373	10.64467
430.581	12.12672
430.789	13.12853
430.997	11.43752
431.205	11.33316
431.413	12.28696
431.621	11.67237
431.829	12.76022
432.037	12.08222
432.245	12.99017
432.453	12.82715
432.661	12.25352
432.869	14.26233
433.076	11.63034
433.284	12.16336
433.492	12.91482
433.7	13.37351
433.908	11.84453
434.116	12.32097
434.323	12.336
434.531	11.95608
434.739	12.51789
434.947	12.7857
435.154	12.69042
435.362	12.00504
435.57	11.80459
435.778	11.64195
435.985	12.54246
436.193	11.67807
436.401	13.62952
436.608	12.29144
436.816	11.94237
437.023	13.74681
437.231	14.20274
437.439	12.55751
437.646	13.08081
437.854	12.95947
438.061	13.30454
438.269	12.5207
438.476	13.38396
438.684	12.98643
438.891	12.44924
439.099	12.219
439.306	11.55972
439.514	11.91834
439.721	13.18038
439.929	12.38679
440.136	13.29858
440.343	13.02045
440.551	12.49598
440.758	14.00817
440.965	12.96424
441.173	12.54428
441.38	11.9715
441.587	12.70398
441.795	11.93176
442.002	12.49396
442.209	12.54889
442.416	12.78288
442.624	12.70832
442.831	12.71013
443.038	12.01522
443.245	11.77928
443.452	12.30892
443.66	13.47193
443.867	12.2709
444.074	12.46159
444.281	12.58269
444.488	12.80228
444.695	13.01909
444.902	12.68116
445.109	13.66065
445.316	13.05101
445.523	12.82527
445.73	12.41061
445.937	13.09105
446.144	13.42731
446.351	13.22065
446.558	12.24078
446.765	13.32231
446.972	13.42061
447.179	12.55712
447.386	13.54584
447.593	12.15378
447.8	13.42925
448.007	12.25608
448.214	12.38356
448.42	12.02583
448.627	13.47873
448.834	12.40945
449.041	12.09208
449.248	12.22675
449.454	13.2206
449.661	14.10088
449.868	12.11847
450.075	11.95134
450.281	10.67331
450.488	11.65832
450.695	12.03373
450.901	12.05125
451.108	12.37629
451.315	13.89185
451.521	12.88683
451.728	13.87165
451.935	12.4288
452.141	12.85522
452.348	12.84854
452.554	12.71639
452.761	12.40188
452.967	14.25543
453.174	12.9558
453.38	13.09483
453.587	11.67972
453.793	12.76048
454	13.40372
454.206	14.66563
454.413	13.73807
454.619	13.28069
454.825	12.34411
455.032	13.38807
455.238	13.67719
455.445	11.80286
455.651	12.98004
455.857	11.15769
456.064	12.41283
456.27	12.51474
456.476	12.4884
456.682	11.60096
456.889	13.25202
457.095	13.49402
457.301	15.20401
457.507	13.21269
457.714	13.31826
457.92	13.16102
458.126	12.59228
458.332	13.36598
458.538	12.9503
458.744	13.43841
458.951	13.52478
459.157	15.09973
459.363	13.64778
459.569	13.12411
459.775	13.757
459.981	12.50403
460.187	12.86671
460.393	13.36443
460.599	13.74037
460.805	12.81401
461.011	12.4258
461.217	13.30893
461.423	13.32943
461.629	12.37008
461.835	13.3361
462.041	12.47756
462.247	13.96207
462.453	12.6297
462.658	12.61634
462.864	13.50723
463.07	13.082
463.276	13.20567
463.482	13.33266
463.688	14.5864
463.893	12.60267
464.099	12.95225
464.305	14.69974
464.511	12.88133
464.716	13.07458
464.922	13.75583
465.128	12.39564
465.333	14.64829
465.539	13.74953
465.745	13.08714
465.95	13.36793
466.156	15.81115
466.362	14.28204
466.567	13.17367
466.773	12.75279
466.978	14.52057
467.184	12.23219
467.389	11.23553
467.595	13.532
467.8	12.2691
468.006	14.22592
468.211	14.10949
468.417	12.10009
468.622	13.77909
468.828	13.77327
469.033	13.38031
469.239	15.7899
469.444	12.78796
469.649	14.0995
469.855	13.26557
470.06	13.53645
470.266	12.39769
470.471	13.96891
470.676	13.53502
470.881	11.64837
471.087	14.91157
471.292	14.61229
471.497	12.15001
471.703	13.11866
471.908	12.76608
472.113	13.59665
472.318	14.15179
472.523	12.19298
472.729	13.81943
472.934	13.77678
473.139	12.96742
473.344	13.63514
473.549	14.48901
473.754	12.43316
473.959	15.08164
474.164	12.43248
474.369	13.0853
474.575	14.04846
474.78	13.32351
474.985	12.81687
475.19	12.00591
475.395	12.81611
475.6	13.44202
475.804	14.82213
476.009	13.78724
476.214	13.50979
476.419	13.04483
476.624	11.91314
476.829	12.82928
477.034	13.92344
477.239	12.69832
477.444	13.61629
477.648	14.01405
477.853	14.01188
478.058	13.16982
478.263	12.64545
478.468	12.19414
478.672	12.37229
478.877	14.49687
479.082	15.08065
479.287	13.59599
479.491	13.20721
479.696	12.50213
479.901	14.09358
480.105	14.06295
480.31	12.83605
480.515	13.49897
480.719	15.66741
480.924	13.17229
481.128	12.77086
481.333	13.82102
481.538	13.91796
481.742	13.46872
481.947	14.14079
482.151	14.27227
482.356	14.0693
482.56	15.58726
482.765	17.66558
482.969	21.1358
483.174	23.62309
483.378	26.66931
483.582	27.04763
483.787	28.43059
483.991	28.46026
484.196	28.11926
484.4	27.2008
484.604	26.61937
484.809	23.66144
485.013	21.82998
485.217	19.34303
485.422	17.24231
485.626	16.06697
485.83	15.51035
486.034	15.53449
486.239	16.2951
486.443	16.99531
486.647	17.56076
486.851	19.05394
487.055	20.35633
487.26	20.26051
487.464	21.20698
487.668	20.47988
487.872	20.61064
488.076	20.48693
488.28	19.25274
488.484	17.77141
488.688	17.00204
488.892	16.15622
489.096	14.82939
489.3	13.46838
489.504	12.91472
489.708	13.39896
489.912	13.6533
490.116	13.86201
490.32	13.39406
490.524	14.38383
490.728	14.97276
490.932	15.78029
491.136	16.53388
491.34	17.67296
491.544	17.68237
491.748	17.31063
491.951	17.18953
492.155	16.43432
492.359	15.60896
492.563	13.79714
492.767	12.65738
492.97	12.11318
493.174	11.93616
493.378	12.27126
493.582	12.08424
493.785	12.90314
493.989	13.23303
494.193	13.17107
494.396	12.95089
494.6	13.77464
494.804	13.32515
495.007	12.84351
495.211	12.98995
495.414	13.32643
495.618	13.8582
495.822	14.66069
496.025	13.78492
496.229	14.31097
496.432	12.83212
496.636	13.45478
496.839	13.27069
497.043	14.62002
497.246	13.57625
497.45	12.87815
497.653	13.13274
497.856	13.36055
498.06	12.28504
498.263	12.79079
498.467	12.71756
498.67	14.00547
498.873	13.5573
499.077	12.87072
499.28	12.78476
499.483	13.44569
499.686	13.72068
499.89	13.3083
500.093	13.58939
500.296	12.31792
500.499	14.33977
500.703	13.05221
500.906	13.20213
501.109	14.65671
501.312	13.19275
501.515	13.06412
501.719	13.42303
501.922	14.29086
502.125	13.40215
502.328	13.0257
502.531	12.17754
502.734	13.33139
502.937	11.74462
503.14	13.25949
503.343	12.44754
503.546	12.91036
503.749	12.65762
503.952	13.65635
504.155	12.49123
504.358	13.56522
504.561	13.21276
504.764	12.0879
504.967	13.0025
505.17	13.0028
505.373	14.39062
505.576	12.9804
505.778	13.53942
505.981	12.42742
506.184	14.24657
506.387	11.60973
506.59	14.68243
506.793	14.0826
506.995	13.76362
507.198	11.62783
507.401	13.56601
507.604	13.67646
507.806	12.41447
508.009	12.23603
508.212	13.8579
508.414	12.74862
508.617	12.85226
508.82	12.87465
509.022	14.26221
509.225	13.3783
509.427	11.85391
509.63	14.12531
509.833	12.97786
510.035	12.70992
510.238	11.72538
510.44	13.92167
510.643	11.30886
510.845	15.01254
511.048	13.65037
511.25	12.77817
511.453	13.19837
511.655	13.52284
511.858	12.86484
512.06	13.80349
512.262	13.13244
512.465	13.767
512.667	12.61743
512.869	12.00603
513.072	13.17779
513.274	13.73074
513.476	13.31107
513.679	13.53066
513.881	11.79923
514.083	14.31025
514.286	12.27488
514.488	12.33718
514.69	12.07452
514.892	11.55368
515.094	13.45471
515.297	12.3502
515.499	13.08653
515.701	12.46992
515.903	14.4998
516.105	14.66824
516.307	13.90981
516.509	11.65403
516.711	12.26087
516.913	13.35946
517.116	13.36276
517.318	12.99878
517.52	14.55495
517.722	14.01703
517.924	12.32052
518.126	13.73864
518.328	12.63688
518.529	13.38703
518.731	14.32165
518.933	12.5198
519.135	12.78121
519.337	13.66793
519.539	13.06866
519.741	11.14327
519.943	12.39821
520.145	12.32232
520.346	13.2103
520.548	12.29684
520.75	13.02727
520.952	12.49222
521.153	12.94216
521.355	13.22781
521.557	11.93983
521.759	12.89496
521.96	12.92931
522.162	11.78266
522.364	13.95045
522.565	12.22931
522.767	13.51939
522.969	13.97954
523.17	13.41518
523.372	13.31282
523.573	12.5755
523.775	12.99795
523.977	12.24049
524.178	14.55166
524.38	12.80534
524.581	14.153
524.783	13.11436
524.984	13.8534
525.186	13.34525
525.387	13.71579
525.589	13.26598
525.79	12.70515
525.991	12.45643
526.193	13.24171
526.394	11.90274
526.596	13.03785
526.797	12.97373
526.998	12.78482
527.2	12.47035
527.401	14.06342
527.602	15.14333
527.803	17.78357
528.005	18.72682
528.206	19.86433
528.407	20.60666
528.608	20.33161
528.81	20.19941
529.011	19.17138
529.212	19.7714
529.413	17.96903
529.614	16.43171
529.815	15.32127
530.017	13.89484
530.218	12.40229
530.419	12.22173
530.62	12.70786
530.821	12.92583
531.022	12.00378
531.223	13.53525
531.424	13.57271
531.625	13.51567
531.826	13.5503
532.027	13.71548
532.228	14.69267
532.429	13.92122
532.63	13.5068
532.831	13.96858
533.032	14.0482
533.233	14.53152
533.433	13.99364
533.634	14.16809
533.835	13.03515
534.036	12.27817
534.237	12.3996
534.438	12.19085
534.638	11.77783
534.839	12.11727
535.04	13.14102
535.241	12.76564
535.441	14.6717
535.642	13.70052
535.843	12.74905
536.043	12.77277
536.244	12.81651
536.445	13.01931
536.645	13.73062
536.846	13.15154
537.047	13.82423
537.247	12.31176
537.448	12.42988
537.648	12.72433
537.849	12.43873
538.049	12.51787
538.25	13.3749
538.451	13.23256
538.651	12.14929
538.851	13.40648
539.052	14.34303
539.252	14.14207
539.453	13.18805
539.653	13.78422
539.854	13.85513
540.054	14.07905
540.254	14.91327
540.455	14.79499
540.655	13.59882
540.855	14.71498
541.056	15.52952
541.256	15.08563
541.456	16.10701
541.657	15.13629
541.857	15.73936
542.057	13.94094
542.257	13.16674
542.458	13.38335
542.658	13.3456
542.858	12.20046
543.058	13.7096
543.258	13.49771
543.458	12.15924
543.659	12.13405
543.859	13.78427
544.059	13.72609
544.259	12.93973
544.459	13.69899
544.659	12.63353
544.859	13.67206
545.059	12.91032
545.259	14.06939
545.459	13.71951
545.659	14.48007
545.859	13.72343
546.059	14.08603
546.259	12.94303
546.459	12.34195
546.659	12.68485
546.859	13.98692
547.059	13.39808
547.258	13.65635
547.458	13.71546
547.658	12.04312
547.858	11.98755
548.058	13.22318
548.258	12.51095
548.457	12.03802
548.657	15.50901
548.857	13.00897
549.057	13.97348
549.256	13.97729
549.456	13.18359
549.656	11.46551
549.855	15.21567
550.055	13.23959
550.255	15.68661
550.454	14.097
550.654	14.56013
550.853	15.32065
551.053	14.46464
551.253	14.29716
551.452	14.33945
551.652	12.95224
551.851	12.29219
552.051	13.57917
552.25	13.47078
552.45	13.10449
552.649	13.48088
552.849	12.79651
553.048	13.59732
553.248	14.39763
553.447	12.63108
553.646	14.45966
553.846	15.21106
554.045	14.41691
554.244	12.05892
554.444	15.54734
554.643	12.79829
554.842	15.39901
555.042	16.1687
555.241	13.09251
555.44	12.57136
555.64	14.21236
555.839	16.19527
556.038	14.70881
556.237	13.13243
556.436	13.8406
556.636	14.18569
556.835	12.88317
557.034	15.76472
557.233	13.70092
557.432	12.51782
557.631	15.2939
557.83	13.62586
558.029	13.43012
558.228	13.25836
558.427	12.9041
558.626	14.50356
558.825	12.95775
559.024	13.93537
559.223	16.16879
559.422	13.80514
559.621	14.55475
559.82	11.10834
560.019	14.35655
560.218	14.0158
560.417	11.12574
560.616	13.75132
560.815	18.27353
561.014	12.43358
561.212	15.79828
561.411	14.24748
561.61	12.23987
561.809	13.81121
562.008	15.89148
562.206	13.88012
562.405	14.901
562.604	13.91087
562.803	14.26044
563.001	13.83474
563.2	12.42668
563.399	14.78265
563.597	12.79176
563.796	14.26726
563.995	13.02429
564.193	15.22577
564.392	13.7709
564.59	17.23833
564.789	12.38607
564.988	14.22017
565.186	14.75663
565.385	14.52255
565.583	14.22996
565.782	14.47332
565.98	14.044
566.179	14.41961
566.377	13.03174
566.575	13.45488
566.774	15.53979
566.972	15.17095
567.171	16.58316
567.369	15.36914
567.567	14.17546
567.766	14.65618
567.964	11.69561
568.162	14.88307
568.361	15.49091
568.559	14.36644
568.757	15.24453
568.956	14.46484
569.154	14.35713
569.352	15.4963
569.55	14.38911
569.748	14.55664
569.947	13.62767
570.145	13.54584
570.343	13.39058
570.541	15.91487
570.739	13.27053
570.937	14.89868
571.135	15.45933
571.333	16.94681
571.532	16.52812
571.73	15.07825
571.928	16.13466
572.126	15.10242
572.324	14.23161
572.522	16.02865
572.72	17.86634
572.918	14.29917
573.116	15.04082
573.313	14.46875
573.511	14.35818
573.709	14.08946
573.907	15.69061
574.105	14.40472
574.303	12.78394
574.501	13.30616
574.699	15.29896
574.896	15.28684
575.094	15.63176
575.292	13.01394
575.49	15.86719
575.688	14.3054
575.885	16.48776
576.083	17.08226
576.281	15.27392
576.478	13.91495
576.676	15.36001
576.874	13.04594
577.071	14.47524
577.269	17.80791
577.467	14.63749
577.664	14.60821
577.862	15.89861
578.059	13.54498
578.257	16.04687
578.455	14.39732
578.652	14.76005
578.85	12.18826
579.047	14.94241
579.245	14.71115
579.442	14.81472
579.64	14.91547
579.837	12.41204
580.034	18.40084
580.232	14.57015
580.429	13.38788
580.627	15.73612
580.824	17.11831
581.021	15.66479
581.219	14.59125
581.416	13.8075
581.613	17.27386
581.811	16.75926
582.008	13.66867
582.205	16.46836
582.402	15.1343
582.6	18.15107
582.797	15.39759
582.994	16.04603
583.191	15.95913
583.388	15.13335
583.586	16.43657
583.783	16.74009
583.98	14.05221
584.177	15.7818
584.374	11.25417
584.571	15.17127
584.768	14.74769
584.965	14.80679
585.162	16.32197
585.359	17.78026
585.556	15.12589
585.753	15.59133
585.95	13.39598
586.147	14.02729
586.344	16.19164
586.541	14.83719
586.738	13.74579
586.935	15.05808
587.132	14.13532
587.329	16.97309
587.526	15.29196
587.722	22.87584
587.919	13.6349
588.116	16.25888
588.313	17.60212
588.51	18.85472
588.706	15.16099
588.903	16.47318
589.1	17.05533
589.297	19.786
589.493	15.43921
589.69	16.28203
589.887	14.889
590.083	13.95689
590.28	14.5922
590.477	16.9211
590.673	16.59898
590.87	17.43482
591.067	15.03552
591.263	16.36018
591.46	16.09607
591.656	15.07085
591.853	17.77682
592.049	14.31262
592.246	14.88367
592.442	17.53266
592.639	17.45519
592.835	13.86254
593.032	16.4969
593.228	13.83052
593.425	13.56132
593.621	13.49486
593.817	16.00029
594.014	14.67377
594.21	15.86059
594.406	17.20612
594.603	16.75196
594.799	14.8217
594.995	12.12256
595.192	17.71369
595.388	15.03728
595.584	15.23726
595.78	13.77295
595.977	19.20502
596.173	18.83986
596.369	15.84388
596.565	14.71964
596.761	14.0054
596.957	17.56166
597.154	14.62565
597.35	14.70452
597.546	14.23234
597.742	16.11836
597.938	15.49
598.134	13.85011
598.33	15.13096
598.526	17.62339
598.722	16.01692
598.918	18.33996
599.114	16.63183
599.31	14.23418
599.506	15.96067
599.702	14.23428
599.898	16.25797
600.094	17.59633
600.29	17.36179
600.485	17.64154
600.681	15.07755
600.877	19.23852
601.073	16.23883
601.269	18.86258
601.465	18.49537
601.66	14.90012
601.856	13.41265
602.052	18.80554
602.248	15.98952
602.443	13.48615
602.639	14.5107
602.835	14.90908
603.03	15.07101
603.226	17.78142
603.422	14.8674
603.617	16.17508
603.813	15.84943
604.009	15.31984
604.204	17.62431
604.4	13.60538
604.595	17.24886
604.791	14.2739
604.986	16.03132
605.182	14.35365
605.377	14.92954
605.573	14.49785
605.768	15.19281
605.964	16.13294
606.159	16.3989
606.355	17.44927
606.55	14.69421
606.746	17.63565
606.941	15.47977
607.136	19.40669
607.332	21.07313
607.527	14.0261
607.722	16.78979
607.918	16.24926
608.113	15.42156
608.308	17.86381
608.503	17.72658
608.699	17.32496
608.894	17.57549
609.089	15.12306
609.284	16.81683
609.479	15.66195
609.675	17.27619
609.87	15.37949
610.065	17.04066
610.26	17.34603
610.455	17.12273
610.65	15.30957
610.845	15.72708
611.04	17.75255
611.235	15.83463
611.43	15.5388
611.625	13.92661
611.82	18.85152
612.015	14.60268
612.21	18.61919
612.405	13.49125
612.6	19.42625
612.795	18.57041
612.99	17.49397
613.185	14.24449
613.38	14.70252
613.575	16.62998
613.77	21.98359
613.965	13.48249
614.159	14.83023
614.354	19.06707
614.549	18.35337
614.744	18.22462
614.938	14.75501
615.133	13.78107
615.328	19.16525
615.523	19.0557
615.717	22.48958
615.912	15.6237
616.107	17.1633
616.301	16.34721
616.496	15.31439
616.691	20.3947
616.885	18.23122
617.08	22.31307
617.274	19.57142
617.469	21.23242
617.664	18.358
617.858	15.64788
618.053	17.61539
618.247	16.22257
618.442	12.71042
618.636	19.72289
618.831	15.46278
619.025	15.56792
619.219	22.17002
619.414	10.07161
619.608	16.65464
619.803	15.56982
619.997	21.2758
620.191	19.30028
620.386	18.08703
620.58	16.91897
620.774	13.49297
620.969	13.81666
621.163	17.32237
621.357	14.5841
621.551	15.84723
621.746	17.35108
621.94	16.80601
622.134	24.43073
622.328	21.33088
622.522	13.55056
622.716	19.10511
622.911	19.02286
623.105	19.28403
623.299	18.27605
623.493	23.71321
623.687	15.34429
623.881	16.27786
624.075	18.26712
624.269	19.79516
624.463	13.26539
624.657	13.9805
624.851	18.4729
625.045	19.59094
625.239	19.60172
625.433	16.49499
625.627	20.69016
625.821	16.55888
626.015	15.88509
626.209	17.87616
626.403	14.83853
626.596	18.22073
626.79	18.85159
626.984	14.44616
627.178	17.7919
627.372	17.96141
627.565	18.4424
627.759	13.60423
627.953	14.32426
628.147	17.66677
628.34	17.97551
628.534	21.40177
628.728	16.26365
628.921	19.29766
629.115	18.1606
629.309	19.29215
629.502	19.29968
629.696	17.92965
629.89	17.19036
630.083	18.21418
630.277	18.57227
630.47	21.59109
630.664	16.66311
630.857	13.89358
631.051	19.25858
631.244	20.32481
631.438	19.72072
631.631	15.91549
631.825	20.51362
632.018	19.76448
632.212	22.46551
632.405	20.68547
632.598	16.25409
632.792	18.50831
632.985	12.6929
633.178	17.18446
633.372	17.84046
633.565	17.77851
633.758	21.15058
633.952	16.13684
634.145	16.04488
634.338	17.579
634.531	16.38893
634.724	16.23295
634.918	17.79726
635.111	17.24423
635.304	16.8898
635.497	22.71114
635.69	18.48141
635.883	21.16381
636.077	14.89057
636.27	19.15283
636.463	18.28588
636.656	19.05448
636.849	17.28905
637.042	19.00574
637.235	21.8175
637.428	20.08298
637.621	19.3575
637.814	21.64995
638.007	22.24786
638.2	22.64052
638.393	23.86561
638.586	15.13567
638.778	17.24681
638.971	18.80866
639.164	23.32898
639.357	19.45763
639.55	22.28615
639.743	20.6351
639.935	20.78216
640.128	24.06626
640.321	20.64296
640.514	19.17042
640.707	26.43059
640.899	20.86458
641.092	14.65462
641.285	39.44696
641.477	13.12767
641.67	25.64289
641.863	23.08264
642.055	20.04581
642.248	19.43035
642.441	18.13637
642.633	20.40324
642.826	23.89403
643.018	23.15392
643.211	24.76751
643.403	23.49229
643.596	26.11735
643.788	24.70786
643.981	18.87188
644.173	22.381
644.366	19.79858
644.558	14.87086
644.751	22.06478
644.943	15.16194
645.135	24.97921
645.328	25.07238
645.52	22.29413
645.712	22.66532
645.905	29.86256
646.097	17.02438
646.289	20.89708
646.482	26.27787
646.674	17.91321
646.866	23.47229
647.058	21.96356
647.251	16.611
647.443	18.10271
647.635	20.07194
647.827	16.84255
648.019	17.75163
648.211	20.76019
648.404	20.31947
648.596	24.73401
648.788	20.93586
648.98	21.04471
649.172	21.68158
649.364	21.70004
649.556	14.61447
649.748	29.0063
649.94	18.06686
650.132	22.19463
650.324	17.55555
650.516	18.21467
650.708	23.99471
650.9	16.1645
651.092	19.55601
651.284	15.57195
651.476	17.31059
651.667	22.09149
651.859	24.33521
652.051	20.17591
652.243	20.87778
652.435	18.77222
652.627	21.76541
652.818	22.03346
653.01	15.22975
653.202	17.31279
653.394	18.69657
653.585	22.16157
653.777	35.44016
653.969	24.53788
654.16	24.53616
654.352	17.44997
654.544	20.66316
654.735	24.12096
654.927	21.98109
655.118	26.39252
655.31	24.0768
655.502	24.47988
655.693	19.38735
655.885	23.56541
656.076	26.47252
656.268	21.32431
656.459	25.77454
656.651	26.04379
656.842	19.07285
657.034	18.58553
657.225	24.20653
657.416	26.01055
657.608	25.62786
657.799	20.89366
657.99	25.31245
658.182	19.08259
658.373	19.22238
658.564	23.41079
658.756	21.15913
658.947	20.28754
659.138	17.56493
659.33	18.5698
659.521	18.11698
659.712	19.85102
659.903	19.35667
660.094	18.06186
660.286	15.50922
660.477	26.30098
660.668	22.10159
660.859	19.95145
661.05	16.02142
661.241	23.08775
661.432	22.25434
661.623	19.68031
661.814	20.04934
662.006	15.48473
662.197	22.8033
662.388	24.99682
662.579	22.59008
662.77	31.9998
662.96	31.75224
663.151	24.96322
663.342	16.06408
663.533	24.51743
663.724	21.77732
663.915	28.15401
664.106	21.98962
664.297	29.60881
664.488	24.6374
664.678	20.96645
664.869	24.59404
665.06	26.21443
665.251	24.1472
665.442	24.63525
665.632	18.66629
665.823	29.5305
666.014	11.83601
666.204	25.20477
666.395	28.01419
666.586	33.56143
666.776	25.73885
666.967	29.65408
667.158	23.72466
667.348	29.5167
667.539	18.75233
667.729	26.31296
667.92	20.21138
668.111	26.90739
668.301	25.36293
668.492	21.8293
668.682	23.2505
668.873	22.68823
669.063	18.26816
669.253	23.68796
669.444	25.82626
669.634	22.50468
669.825	29.99781
670.015	27.40328
670.206	20.47076
670.396	31.15544
670.586	22.83624
670.777	25.28637
670.967	15.17096
671.157	23.23369
671.347	21.92962
671.538	30.14357
671.728	25.07237
671.918	31.24305
672.108	28.91498
672.299	23.98602
672.489	25.73247
672.679	21.55893
672.869	25.4632
673.059	31.62259
673.249	27.0839
673.44	20.03248
673.63	22.96967
673.82	28.49185
674.01	20.50046
674.2	26.30887
674.39	36.58343
674.58	27.34341
674.77	25.68688
674.96	24.32871
675.15	43.19987
675.34	29.90192
675.53	24.90295
675.72	23.67992
675.91	18.94805
676.099	32.59767
676.289	33.94719
676.479	30.25072
676.669	23.19828
676.859	27.65676
677.049	20.29778
677.238	25.38635
677.428	33.24989
677.618	26.226
677.808	29.4783
677.997	27.35089
678.187	20.21389
678.377	25.20282
678.567	23.12632
678.756	22.77929
678.946	23.61871
679.136	19.07488
679.325	21.06573
679.515	20.57094
679.704	19.09708
679.894	26.22605
680.084	24.19276
680.273	28.40106
680.463	19.5929
680.652	20.36891
680.842	23.15996
681.031	26.96912
681.221	20.46929
681.41	25.99634
681.6	22.70353
681.789	26.81614
681.978	29.85855
682.168	25.22231
682.357	25.13246
682.547	26.93582
682.736	24.76078
682.925	29.99187
683.115	29.16419
683.304	28.6692
683.493	27.0173
683.682	28.24045
683.872	26.85674
684.061	31.80994
684.25	29.72773
684.439	34.98619
684.629	29.66201
684.818	42.72198
685.007	25.87475
685.196	24.80434
685.385	33.82676
685.574	29.1688
685.763	29.42529
685.952	27.44989
686.142	21.66461
686.331	33.70332
686.52	18.61945
686.709	34.3252
686.898	33.34291
687.087	30.59807
687.276	35.47285
687.465	30.87045
687.654	26.08748
687.842	34.92739
688.031	21.53335
688.22	32.34747
688.409	27.98244
688.598	27.91232
688.787	40.75392
688.976	28.04992
689.165	36.88253
689.353	25.65708
689.542	30.646
689.731	31.37097
689.92	37.85324
690.108	33.89209
690.297	26.1521
690.486	28.68286
690.675	32.84207
690.863	37.555
691.052	37.71514
691.241	31.67825
691.429	30.21414
691.618	37.24953
691.806	23.61455
691.995	27.78104
692.184	28.51505
692.372	27.38318
692.561	30.86714
692.749	29.47021
692.938	42.4411
693.126	33.29397
693.315	28.21981
693.503	34.09102
693.692	34.30561
693.88	35.9638
694.068	42.54788
694.257	29.82567
694.445	33.18702
694.634	20.14453
694.822	37.15129
695.01	37.26414
695.199	38.23367
695.387	40.71491
695.575	37.44025
695.763	30.88078
695.952	28.90809
696.14	22.69259
696.328	28.09216
696.516	30.93227
696.705	32.39898
696.893	31.75981
697.081	21.69929
697.269	33.63074
697.457	25.22607
697.645	24.19618
697.833	33.46086
698.021	25.3206
698.21	26.19245
698.398	27.74172
698.586	22.3935
698.774	21.55931
698.962	25.65288
699.15	22.17134
699.338	19.66844
699.526	28.609
699.714	23.30157
699.901	24.35657
700.089	31.7894
700.277	23.62702
700.465	26.31315
700.653	32.33163
700.841	31.71386
701.029	24.80545
701.217	35.61586
701.404	31.31809
701.592	39.74546
701.78	40.86678
701.968	28.34447
702.155	29.72564
702.343	24.05513
702.531	39.9016
702.718	34.38043
702.906	31.02632
703.094	28.96237
703.281	40.20746
703.469	32.14986
703.657	39.69533
703.844	54.34185
704.032	42.87727
704.219	29.82357
704.407	36.04475
704.595	41.80642
704.782	35.04539
704.97	31.17778
705.157	32.02872
705.345	44.26934
705.532	50.70342
705.719	36.75607
705.907	43.58952
706.094	35.37599
706.282	45.23464
706.469	32.23523
706.656	35.50318
706.844	33.67678
707.031	41.04278
707.218	36.11881
707.406	46.62917
707.593	39.54876
707.78	38.99387
707.968	34.16014
708.155	29.34982
708.342	39.01079
708.529	38.4417
708.716	36.38496
708.904	47.73127
709.091	39.67334
709.278	27.7015
709.465	49.7974
709.652	48.0107
709.839	44.9009
710.026	37.49867
710.213	25.66501
710.4	38.98047
710.587	41.82363
710.774	43.76442
710.961	43.10537
711.148	36.14225
711.335	43.93203
711.522	34.84948
711.709	39.19458
711.896	51.47116
712.083	43.394
712.27	30.40606
712.457	37.76202
712.644	26.86944
712.831	51.87312
713.017	38.03769
713.204	42.04554
713.391	33.70591
713.578	46.59676
713.765	46.28236
713.951	42.20818
714.138	60.56524
714.325	42.70874
714.512	38.92421
714.698	33.01948
714.885	50.3178
715.072	40.625
715.258	39.48577
715.445	34.08301
715.631	48.50103
715.818	21.62433
716.005	33.60092
716.191	42.84999
716.378	36.41177
716.564	45.17731
716.751	31.27188
716.937	35.35031
717.124	47.28076
717.31	33.03489
717.497	51.01615
717.683	33.9073
717.869	58.58484
718.056	35.59117
718.242	44.27121
718.429	39.95431
718.615	31.77191
718.801	40.5038
718.988	49.03636
719.174	44.87742
719.36	40.27984
719.547	53.41233
719.733	44.28638
719.919	45.37018
720.105	49.13683
720.291	41.14806
720.478	44.98147
720.664	41.42348
720.85	39.29855
721.036	67.84344
721.222	55.79764
721.408	43.04486
721.595	61.0763
721.781	59.20895
721.967	53.63233
722.153	59.54608
722.339	50.34985
722.525	48.86404
722.711	36.68996
722.897	33.17713
723.083	41.36599
723.269	53.81167
723.455	68.10127
723.641	72.30424
723.827	47.20484
724.012	49.07892
724.198	42.25694
724.384	56.01485
724.57	49.76257
724.756	33.14214
724.942	29.86386
725.127	53.72682
725.313	59.97387
725.499	60.35857
725.685	63.86934
725.87	50.32597
726.056	37.14786
726.242	59.27623
726.428	33.43869
726.613	54.00643
726.799	43.48441
726.985	36.5229
727.17	32.44415
727.356	59.167
727.541	37.76661
727.727	42.84287
727.913	52.64276
728.098	40.57631
728.284	52.66409
728.469	33.36438
728.655	38.68854
728.84	51.83933
729.026	53.16911
729.211	54.26841
729.397	48.9149
729.582	52.10878
729.767	45.11235
729.953	49.5964
730.138	55.42858
730.323	26.06917
730.509	34.62601
730.694	61.35983
730.879	49.34783
731.065	47.33886
731.25	68.20104
731.435	52.6317
731.621	32.29606
731.806	40.6233
731.991	49.6006
732.176	35.10237
732.361	57.85588
732.547	48.01368
732.732	30.06409
732.917	68.96684
733.102	34.48591
733.287	38.47311
733.472	45.25629
733.657	46.8596
733.842	32.91652
734.027	42.60273
734.212	44.23989
734.397	38.39612
734.582	47.47879
734.767	55.58201
734.952	61.04991
735.137	22.92857
735.322	62.72815
735.507	51.87356
735.692	50.697
735.877	71.88855
736.062	65.89915
736.247	53.43167
736.431	49.03311
736.616	61.79163
736.801	53.36831
736.986	49.94476
737.171	41.89687
737.355	37.74769
737.54	62.63131
737.725	49.84132
737.909	81.78935
738.094	42.53139
738.279	60.43383
738.463	45.83854
738.648	57.54127
738.833	52.24397
739.017	69.36509
739.202	47.63693
739.386	49.60357
739.571	33.33202
739.756	56.43293
739.94	48.89561
740.125	59.56922
740.309	42.75494
740.494	58.34243
740.678	52.16589
740.863	56.84954
741.047	52.76829
741.231	64.2095
741.416	41.46227
741.6	68.91961
741.785	44.31929
741.969	61.80253
742.153	64.94562
742.338	30.29143
742.522	53.39107
742.706	61.8753
742.89	40.26027
743.075	53.14042
743.259	69.53478
743.443	61.94185
743.627	67.12896
743.812	82.68774
743.996	34.93682
744.18	51.65273
744.364	47.78374
744.548	88.95528
744.732	51.97212
744.916	64.82246
745.1	59.62947
745.285	51.25638
745.469	62.6655
745.653	77.8386
745.837	35.93825
746.021	88.72158
746.205	69.91794
746.389	55.86615
746.573	51.05927
746.757	73.70136
746.94	49.20176
747.124	70.10019
747.308	41.69708
747.492	72.06491
747.676	47.17854
747.86	86.68445
748.044	45.28086
748.227	33.89511
748.411	103.6746
748.595	58.52159
748.779	43.45
748.963	59.29268
749.146	56.14274
749.33	45.95284
749.514	41.04316
749.697	70.4337
749.881	47.98462
750.065	43.03549
750.248	57.39152
750.432	87.29881
750.616	54.55396
750.799	41.00247
750.983	83.21348
751.166	96.32084
751.35	36.60337
751.533	72.14777
751.717	71.38324
751.9	76.94482
752.084	49.61358
752.267	43.80067
752.451	47.745
752.634	56.92416
752.818	64.51424
753.001	66.22526
753.184	69.27995
753.368	62.41077
753.551	16.07534
753.734	45.71301
753.918	81.28003
754.101	45.58927
754.284	66.25188
754.467	51.02195
754.651	47.53582
754.834	45.23006
755.017	72.62216
755.2	70.43535
755.384	41.21977
755.567	68.27768
755.75	73.23733
755.933	53.278
756.116	62.36729
756.299	51.19715
756.482	44.92751
756.665	65.15972
756.848	57.0597
757.032	63.53745
757.215	38.07719
757.398	45.56611
757.581	48.12463
757.764	97.21561
757.947	54.00185
758.129	73.83347
758.312	22.3308
758.495	57.12544
758.678	55.86241
758.861	54.14199
759.044	87.08671
759.227	46.71186
759.41	45.49859
759.592	66.76714
759.775	55.41392
759.958	73.42337
760.141	41.3557
760.324	91.84273
760.506	79.63684
760.689	71.18121
760.872	94.95693
761.054	65.07286
761.237	55.76186
761.42	64.1913
761.602	70.81237
761.785	64.23192
761.968	71.3823
762.15	85.45816
762.333	55.62316
762.515	65.3229
762.698	49.0829
762.88	67.49143
763.063	59.32719
763.245	65.21112
763.428	41.94064
763.61	46.25107
763.793	35.36329
763.975	53.28252
764.158	45.93391
764.34	43.88808
764.522	37.27495
764.705	47.02445
764.887	64.61119
765.069	32.82475
765.252	62.84582
765.434	62.29819
765.616	56.52347
765.799	47.81145
765.981	68.62909
766.163	45.36758
766.345	71.55629
766.528	50.78026
766.71	26.75783
766.892	60.05489
767.074	75.21235
767.256	53.40071
767.438	85.73823
767.62	62.60112
767.802	95.07868
767.985	69.46522
768.167	92.3966
768.349	51.62259
768.531	70.57756
768.713	65.71843
768.895	76.20589
769.077	68.95983
769.259	104.86751
769.441	153.38997
769.623	82.13707
769.804	94.07362
769.986	92.3679
770.168	109.57042
770.35	127.65938
770.532	95.05337
770.714	100.7553
770.896	108.25901
771.077	49.72216
771.259	110.06773
771.441	91.49225
771.623	117.90489
771.804	139.99418
771.986	47.4189
772.168	71.24746
772.35	113.97536
772.531	157.04478
772.713	90.23682
772.894	121.26306
773.076	85.79985
773.258	75.35649
773.439	114.8864
773.621	130.6368
773.802	63.21745
773.984	75.09851
774.166	94.75194
774.347	125.72591
774.529	116.46717
774.71	41.84812
774.891	84.43692
775.073	78.34295
775.254	123.33567
775.436	75.93704
775.617	143.32637
775.799	77.59818
775.98	131.76491
776.161	134.97638
776.343	136.59506
776.524	91.95122
776.705	80.89799
776.886	47.851
777.068	93.61444
777.249	165.91527
777.43	155.25798
777.611	58.9877
777.793	84.99879
777.974	131.98663
778.155	79.23556
778.336	72.42189
778.517	154.28199
778.698	69.45378
778.879	41.68903
779.061	24.92783
779.242	100.64822
779.423	105.92623
779.604	73.94239
779.785	87.05223
779.966	95.83879
780.147	111.58
780.328	124.67541
780.509	170.13962
780.69	115.56366
780.871	69.38593
781.051	56.26162
781.232	94.14896
781.413	93.44107
781.594	84.03493
781.775	79.24902
781.956	72.17367
782.137	45.9128
782.317	71.33026
782.498	99.97914
782.679	88.84039
782.86	94.1839
783.04	71.92105
783.221	102.44798
783.402	150.84813
783.583	95.51006
783.763	113.7027
783.944	78.73358
784.124	59.18492
784.305	143.29387
784.486	106.05711
784.666	90.65126
784.847	50.7731
785.027	169.73098
785.208	71.81479
785.388	67.23317
785.569	76.89024
785.749	84.43879
785.93	77.12934
786.11	52.66458
786.291	103.77763
786.471	94.88317
786.652	110.50953
786.832	87.83358
787.012	102.72409
787.193	64.15309
787.373	92.47224
787.553	82.0686
787.734	96.61897
787.914	80.57473
788.094	106.51145
788.275	101.3179
788.455	80.18533
788.635	56.36065
788.815	93.64181
788.995	60.77712
789.176	54.49744
789.356	66.6302
789.536	81.52421
789.716	104.44894
789.896	66.98176
790.076	76.41769
790.256	91.99845
790.436	35.68424
790.616	65.89387
790.796	95.44491
790.976	77.15151
791.156	71.94132
791.336	108.86651
791.516	98.62347
791.696	81.99717
791.876	52.54613
792.056	91.27418
792.236	114.75188
792.416	111.52614
792.596	102.89077
792.776	100.84227
792.956	108.16009
793.135	131.84698
793.315	63.81749
793.495	126.29748
793.675	101.14378
793.854	115.85235
794.034	113.42802
794.214	59.79659
794.394	116.2737
794.573	127.83603
794.753	94.33244
794.933	68.71832
795.112	97.14352
795.292	111.58911
795.472	144.5239
795.651	58.18779
795.831	89.47548
796.01	83.71198
796.19	83.3535
796.369	84.35451
796.549	104.07729
796.728	83.09121
796.908	54.19849
797.087	62.23315
797.267	78.05326
797.446	61.11828
797.626	105.88926
797.805	105.60195
797.984	66.73928
798.164	106.07497
798.343	67.26334
798.522	95.48246
798.702	89.91078
798.881	58.56215
799.06	84.15117
799.239	41.62127
799.419	64.01087
799.598	135.62984
799.777	102.56623
799.956	124.32831
800.136	76.83083
800.315	66.1274
800.494	106.13849
800.673	118.58075
800.852	105.88573
801.031	119.32
801.21	102.64421
801.389	79.19555
801.568	92.54052
801.747	150.6742
801.926	91.43879
802.105	142.00018
802.284	76.38391
802.463	134.3152
802.642	97.81849
802.821	98.47602
803	132.214
803.179	121.21042
803.358	126.03325
803.537	73.50137
803.716	92.0022
803.895	73.73489
804.073	88.70896
804.252	73.99965
804.431	104.47506
804.61	88.5583
804.789	127.25291
804.967	80.14681
805.146	72.10389
805.325	152.15455
805.503	102.23082
805.682	53.78945
805.861	169.91836
806.039	130.45994
806.218	77.03121
806.397	97.76288
806.575	95.20657
806.754	102.6262
806.932	65.26704
807.111	147.8291
807.289	119.57161
807.468	95.48858
807.646	123.72326
807.825	107.41498
808.003	96.11023
808.182	119.28993
808.36	93.23276
808.539	71.83608
808.717	148.48601
808.895	69.26306
809.074	101.83564
809.252	91.8439
809.43	110.62901
809.609	131.92108
809.787	144.71659
809.965	88.41996
810.144	99.07381
810.322	90.88081
810.5	109.15353
810.678	89.88795
810.856	169.57343
811.035	132.03988
811.213	120.22471
811.391	141.37292
811.569	101.91351
811.747	204.56991
811.925	138.98647
812.103	76.25601
812.281	93.47205
812.459	156.26258
812.637	156.90849
812.816	127.78783
812.994	161.18904
813.171	135.43423
813.349	113.64272
813.527	139.74108
813.705	151.49133
813.883	185.95838
814.061	137.37235
814.239	163.21498
814.417	180.67629
814.595	111.06217
814.773	115.59308
814.95	108.22535
815.128	122.91402
815.306	80.94749
815.484	100.18
815.662	78.06332
815.839	69.92677
816.017	79.00558
816.195	150.98786
816.372	91.85505
816.55	129.66413
816.728	148.40714
816.905	90.24473
817.083	159.39874
817.261	102.909
817.438	175.54021
817.616	170.98194
817.793	88.68584
817.971	128.03085
818.148	128.63828
818.326	151.33459
818.503	111.2743
818.681	150.90702
818.858	88.60423
819.036	100.95106
819.213	113.02509
819.391	83.14998
819.568	76.68382
819.745	71.50604
819.923	122.13253
820.1	84.26857
820.277	72.22523
820.455	86.76673
820.632	86.75136
820.809	87.03426
820.986	60.54232
821.164	50.21431
821.341	44.98959
821.518	58.52608
821.695	43.97562
821.872	42.08722
822.05	36.44963
822.227	28.38825
822.404	29.40069
822.581	31.46327
822.758	27.36879
822.935	26.30741
823.112	29.43831
823.289	23.68069
823.466	28.81384
823.643	25.99234
823.82	30.67686
823.997	27.67669
824.174	33.02524
824.351	43.6181
824.528	42.12563
824.705	39.34802
824.882	44.38017
825.059	59.09229
825.236	41.06891
825.412	45.72149
825.589	57.80265
825.766	77.46286
825.943	52.67085
826.12	61.87065
826.296	43.31462
826.473	53.51067
826.65	54.7123
826.827	65.38615
827.003	44.50424
827.18	48.59291
827.357	54.11787
827.533	47.38171
827.71	27.66255
827.887	40.62927
828.063	45.07463
828.24	39.67515
828.416	52.13982
828.593	42.42226
828.769	59.0122
828.946	67.66833
829.122	69.51662
829.299	65.86113
829.475	41.98936
829.652	69.35645
829.828	116.14464
830.005	76.9566
830.181	104.0471
830.357	74.81159
830.534	109.65197
830.71	84.63662
830.886	107.14405
831.063	105.23571
831.239	139.14255
831.415	65.54958
831.592	139.43425
831.768	88.29776
831.944	75.94436
832.12	140.31301
832.296	130.74885
832.473	114.73512
832.649	84.46156
832.825	107.30226
833.001	67.64795
833.177	98.98158
833.353	88.61433
833.529	51.34751
833.705	69.44787
833.881	51.73539
834.058	50.85439
834.234	52.38014
834.41	52.12685
834.586	41.8955
834.761	50.07554
834.937	54.03244
835.113	55.15832
835.289	50.39243
835.465	60.04333
835.641	52.82509
835.817	59.77339
835.993	108.64648
836.169	55.78858
836.344	84.60213
836.52	96.05743
836.696	95.17042
836.872	73.97825
837.048	191.96198
837.223	80.23478
837.399	163.87116
837.575	128.77179
837.75	124.16644
837.926	158.49098
838.102	271.74295
838.277	207.24914
838.453	270.43289
838.628	249.75626
838.804	119.6937
838.98	246.76654
839.155	125.12772
839.331	172.46051
839.506	129.01616
839.682	126.20072
839.857	158.1397
840.033	183.48357
840.208	89.62392
840.384	51.21376
840.559	89.46843
840.734	137.65409
840.91	197.31468
841.085	121.936
841.26	112.44754
841.436	97.57734
841.611	106.36932
841.786	155.33287
841.962	210.07438
842.137	129.54378
842.312	82.98421
842.487	112.72625
842.663	95.89004
842.838	120.69763
843.013	408.65156
843.188	198.7215
843.363	147.11419
843.538	360.73253
843.714	342.80871
843.889	353.29442
844.064	374.20116
844.239	315.55285
844.414	414.45408
844.589	236.76611
844.764	511.55908
844.939	439.29413
845.114	540.41896
845.289	561.76748
845.464	550.67143
845.639	439.5721
845.814	199.9183
845.989	264.28641
846.163	288.11361
846.338	327.53684
846.513	493.33784
846.688	316.08937
846.863	278.60434
847.038	249.2521
847.212	325.67304
847.387	320.3887
847.562	332.53026
847.737	423.86098
847.911	157.62964
848.086	190.79063
848.261	619.9489
848.435	257.94688
848.61	450.23518
848.785	185.61326
848.959	454.24011
849.134	629.35974
849.308	736.86156
849.483	355.11144
849.658	535.46928
849.832	260.00673
850.007	215.5915
850.181	994.18581
850.356	261.19171
850.53	784.62449
850.705	212.30869
850.879	145.00858
851.053	275.32899
851.228	249.28444
851.402	412.73685
851.577	470.70033
851.751	720.40168
851.925	319.58443
852.099	151.14509
852.274	196.47996
852.448	293.7204
852.622	432.92467
852.797	310.10754
852.971	330.00742
853.145	320.55154
853.319	1057.71553
853.493	501.25578
853.668	254.9823
853.842	713.88133
854.016	529.66127
854.19	652.21874
854.364	337.7293
854.538	376.56964
854.712	571.19247
854.886	301.734
855.06	266.08411
855.234	120.89965
855.408	602.11738
855.582	589.04499
855.756	523.01491
855.93	653.83791
856.104	369.32377
856.278	503.9206
856.452	324.35059
856.626	414.66565
856.8	966.22708
856.973	419.33025
857.147	400.96134
857.321	422.43065
857.495	546.70687
857.669	351.68851
857.842	271.29922
858.016	515.46958
858.19	213.43017
858.364	1334.74204
858.537	281.74147
858.711	335.52455
858.885	285.56362
859.058	275.30258
859.232	143.8402
859.405	169.25898
859.579	488.45971
859.753	397.85986
859.926	270.47601
860.1	136.41277
860.273	314.51885
860.447	590.4588
860.62	297.43129
860.794	726.09285
860.967	342.8588
861.141	638.23466
861.314	1053.54073
861.487	465.18168
861.661	644.84266
861.834	682.60904
862.008	487.23761
862.181	386.52589
862.354	359.6745
862.528	410.11273
862.701	302.74069
862.874	174.27643
863.047	299.54615
863.221	299.36302
863.394	151.57283
863.567	575.45311
863.74	114.89588
863.913	483.09165
864.087	475.55545
864.26	552.04314
864.433	295.24534
864.606	922.28162
864.779	303.37346
864.952	147.82774
865.125	257.72038
865.298	307.80281
865.471	320.54863
865.644	794.81564
865.817	541.99536
865.99	535.07785
866.163	743.71207
866.336	307.58316
866.509	293.57598
866.682	274.00156
866.855	602.88809
867.028	182.14522
867.2	441.0718
867.373	130.33273
867.546	346.51109
867.719	827.24339
867.892	458.7766
868.064	279.76577
868.237	380.43509
868.41	381.76835
868.583	178.94694
868.755	219.87719
868.928	311.41819
869.101	910.85619
869.273	544.7155
869.446	439.76461
869.619	626.32728
869.791	327.19449
869.964	538.10159
870.136	526.26659
870.309	427.36996
870.481	336.63481
870.654	174.74838
870.826	445.97782
870.999	267.48951
871.171	420.98421
871.344	256.29288
871.516	329.70352
871.689	227.53718
871.861	407.27758
872.033	226.55523
872.206	273.49728
872.378	474.45898
872.55	290.20783
872.723	185.72839
872.895	315.73529
873.067	522.69268
873.24	524.24545
873.412	269.93952
873.584	290.75442
873.756	276.79503
873.928	337.9586
874.101	383.99252
874.273	420.6423
874.445	141.17259
874.617	184.90043
874.789	331.55408
874.961	282.82698
875.133	412.76714
875.305	334.03103
875.477	210.80402
875.649	167.86605
875.821	195.0462
875.993	590.38424
876.165	209.12423
876.337	349.58043
876.509	305.66336
876.681	331.24813
876.853	361.74717
877.025	384.21925
877.197	226.7822
877.369	205.68649
877.541	461.58026
877.712	117.19567
877.884	203.49577
878.056	387.33745
878.228	204.29092
878.4	405.45204
878.571	206.62552
878.743	139.18148
878.915	323.52736
879.086	201.20624
879.258	233.78339
879.43	206.29518
879.601	189.25209
879.773	201.96893
879.945	55.60033
880.116	81.93358
880.288	52.8228
880.459	59.77193
880.631	44.72716
880.802	52.75108
880.974	49.10374
881.145	34.97122
881.317	44.29193
881.488	33.52155
881.66	36.83498
881.831	33.70515
882.002	42.27692
882.174	31.302
882.345	38.75357
882.517	22.38224
882.688	44.32837
882.859	35.02032
883.03	55.03508
883.202	53.39423
883.373	45.25621
883.544	46.32247
883.715	73.52073
883.887	68.39454
884.058	58.205
884.229	82.33075
884.4	84.88738
884.571	104.69268
884.742	87.68469
884.914	94.66628
885.085	138.0664
885.256	190.28236
885.427	160.78093
885.598	171.06739
885.769	186.93787
885.94	194.3159
886.111	126.52657
886.282	237.11571
886.453	174.32238
886.624	133.52546
886.795	236.68723
886.966	193.88774
887.136	248.66313
887.307	205.05867
887.478	383.35437
887.649	312.64673
887.82	338.88363
887.991	257.7638
888.161	324.85618
888.332	318.78497
888.503	144.95651
888.674	493.58924
888.844	607.15765
889.015	394.41365
889.186	173.52677
889.356	532.85972
889.527	154.73132
889.698	1086.41042
889.868	266.48897
890.039	357.97477
890.209	317.59165
890.38	404.36878
890.551	334.12876
890.721	467.55054
890.892	469.74657
891.062	283.86497
891.233	338.98074
891.403	326.65091
891.574	208.50193
891.744	307.87864
891.914	354.85526
892.085	313.62557
892.255	110.34595
892.425	602.07099
892.596	395.79852
892.766	409.89166
892.936	488.94096
893.107	397.37733
893.277	211.28405
893.447	167.34883
893.618	128.38499
893.788	283.07724
893.958	143.20065
894.128	137.85763
894.298	160.5281
894.468	200.86389
894.639	100.20344
894.809	70.53089
894.979	107.89216
895.149	123.66373
895.319	95.32225
895.489	128.81887
895.659	170.06374
895.829	107.32805
895.999	109.78406
896.169	87.13759
896.339	110.6816
896.509	222.08109
896.679	239.30245
896.849	246.52991
897.019	362.93054
897.189	283.63501
897.358	256.23807
897.528	368.74088
897.698	133.20014
897.868	327.35298
898.038	909.50182
898.208	734.94403
898.377	151.09445
898.547	812.81276
898.717	1051.89439
898.886	402.4292
899.056	612.48997
899.226	1477.74442
899.395	478.77722
899.565	880.59654
899.735	466.99248
899.904	1062.22142
900.074	1017.78455
900.244	277.81982
900.413	1218.03916
900.583	266.87712
900.752	419.74109
900.922	2132.52093
901.091	80.49753
901.261	640.6354
901.43	653.3108
901.599	587.73238
901.769	7165.77352
901.938	745.3086
902.108	801.29379
902.277	1627.0995
902.446	256.1282
902.616	237.18037
902.785	334.84399
902.954	684.18863
903.124	500.55783
903.293	350.79401
903.462	178.92826
903.631	253.6652
903.801	194.50538
903.97	100.03528
904.139	161.72022
904.308	122.62923
904.477	99.08542
904.646	59.4097
904.816	70.73718
904.985	125.96239
905.154	196.6422
