Data from WindowProjectSample_Transmission__24__00024.txt Node

Date: Sat May 03 15:19:24 EDT 2025
User: jessi
Spectrometer: SR400872
Trigger mode: 0
Integration Time (sec): 5.000010E-1
Scans to average: 6
Electric dark correction enabled: true
Nonlinearity correction enabled: true
Boxcar width: 0
XAxis mode: Wavelengths
Number of Pixels in Spectrum: 3648
>>>>>Begin Spectral Data<<<<<
184.909	18044.11498
185.132	2690.35059
185.355	23860.77785
185.578	-8042.118
185.801	373.0182
186.024	-1538.89186
186.247	737.33718
186.47	1838.72528
186.693	-347.8674
186.916	-2627.07645
187.139	-2755.97357
187.362	1579.21342
187.585	2745.03185
187.808	-3689.2096
188.031	534.29946
188.254	-1286.99411
188.476	-833.07239
188.699	2537.25891
188.922	-747.96915
189.145	-10064.76717
189.368	-411.84367
189.591	-1085.545
189.813	-1791.57475
190.036	1206.83297
190.259	1829.41321
190.482	592.82858
190.705	10977.88693
190.927	-1067.35355
191.15	3541.82926
191.373	2395.7603
191.595	-2476.02633
191.818	2558.39458
192.041	-277.84095
192.263	3042.89477
192.486	2120.81702
192.709	-5375.74466
192.931	2915.15855
193.154	-6626.15598
193.377	190711.96355
193.599	1596.26589
193.822	1924.24181
194.044	-2201.63236
194.267	503.04907
194.489	-681.81035
194.712	1400.96697
194.934	3344.75299
195.157	-14271.54482
195.379	847.41628
195.602	2406.79756
195.824	1954.47379
196.047	2387.82912
196.269	2995.02789
196.492	3487.26135
196.714	2881.125
196.936	1236.31856
197.159	1304.64666
197.381	-2437.03092
197.604	-1255.33014
197.826	6494.53661
198.048	2865.65531
198.271	4257.28096
198.493	2215.90132
198.715	-5838.5473
198.938	-474.03717
199.16	1856.83278
199.382	1485.42293
199.604	-689.42166
199.827	9278.82046
200.049	1043.29321
200.271	-3058.21135
200.493	-55482.25941
200.715	2290.39014
200.938	6629.27376
201.16	-7414.10554
201.382	-3145.7301
201.604	-2094.41602
201.826	6865.24533
202.048	925.30296
202.27	-16098.54925
202.492	4927.18156
202.715	-1102.02396
202.937	4787.68732
203.159	-2306.04003
203.381	881.74126
203.603	-3398.35791
203.825	-2695.95837
204.047	3246.94491
204.269	-2050.6505
204.491	2149.65293
204.713	1884.5514
204.935	16299.8732
205.156	1804.77205
205.378	-7778.21015
205.6	-4537.84374
205.822	9085.01452
206.044	-715.43612
206.266	4156.90957
206.488	1195.18914
206.71	27392.0688
206.932	2340.27347
207.153	-5046.03301
207.375	-2033.39734
207.597	8882.97143
207.819	4187.20708
208.041	2271.79581
208.262	-2756.34803
208.484	-1338.17523
208.706	-2766.57146
208.927	29287.77507
209.149	986.37946
209.371	-6274.81193
209.593	1302.67922
209.814	5212.41005
210.036	-2788.46565
210.258	-5216.23394
210.479	-1199.73318
210.701	965.74941
210.922	7042.36583
211.144	-1431.34976
211.366	-6078.49248
211.587	-529.6863
211.809	9716.97112
212.03	-1267.02106
212.252	-2139.12871
212.473	715.77387
212.695	-2391.76591
212.916	3035.28436
213.138	4475.3011
213.359	-1828.67165
213.581	6332.05655
213.802	-1692.47122
214.024	17404.06246
214.245	-3264.88534
214.466	-647.08552
214.688	1788.60231
214.909	869.90815
215.131	-101471.29489
215.352	1589.52803
215.573	2627.67584
215.795	2983.70249
216.016	4267.54423
216.237	-651.07335
216.459	6417.784
216.68	108987.3342
216.901	-88064.62193
217.122	2033.31937
217.344	5890.05744
217.565	-57922.82088
217.786	1542.59785
218.007	1658.41146
218.228	-1342.34228
218.45	-1299.33946
218.671	-1312.20296
218.892	1189.4289
219.113	-18390.84638
219.334	-453.18165
219.555	-5563.6022
219.776	1609.59083
219.997	3507.21294
220.219	1103.76533
220.44	2207.78239
220.661	-3443.47605
220.882	3715.0478
221.103	-1346.99115
221.324	969.91365
221.545	2368.64932
221.766	-6196.50041
221.987	4121.04976
222.208	-1880.42806
222.429	3535.77077
222.65	-112.98727
222.87	-607.34078
223.091	8771.94047
223.312	2394.02261
223.533	6116.62121
223.754	1948.3823
223.975	1519.58916
224.196	-11320.97444
224.417	1078.13465
224.637	999.91251
224.858	-703.34042
225.079	6694.14512
225.3	613.82138
225.521	2073.20871
225.741	1336.1792
225.962	744.33805
226.183	281.85665
226.404	666.54922
226.624	600.77092
226.845	375.14045
227.066	416.00339
227.286	199.59361
227.507	90.88842
227.728	79.25562
227.948	130.12476
228.169	40.91291
228.389	44.93159
228.61	25.66873
228.831	35.35922
229.051	4.32821
229.272	22.15039
229.492	31.45366
229.713	9.14366
229.933	24.62026
230.154	19.58619
230.374	32.04471
230.595	24.93788
230.815	16.49094
231.036	25.11434
231.256	-4.02256
231.477	44.13518
231.697	23.6968
231.917	24.54899
232.138	36.17148
232.358	74.4185
232.579	65.2805
232.799	14.54444
233.019	69.13522
233.24	82.99436
233.46	26.0963
233.68	38.93337
233.901	28.33439
234.121	18.28646
234.341	5.74729
234.561	-1.34653
234.782	14.78327
235.002	47.63209
235.222	-0.68939
235.442	42.29725
235.662	22.0787
235.883	44.5275
236.103	37.39182
236.323	25.32654
236.543	18.85025
236.763	30.92038
236.983	29.97738
237.203	30.93192
237.423	41.60542
237.643	65.04415
237.864	51.27958
238.084	16.47056
238.304	23.01393
238.524	37.28302
238.744	29.79532
238.964	47.7203
239.184	42.84006
239.404	44.04814
239.624	26.06397
239.843	41.90001
240.063	23.72559
240.283	16.35731
240.503	17.15104
240.723	16.81528
240.943	9.32861
241.163	13.29359
241.383	10.3451
241.603	5.27301
241.822	6.02892
242.042	4.09646
242.262	6.15421
242.482	6.91903
242.702	8.3665
242.921	2.91149
243.141	5.72837
243.361	4.70087
243.581	7.88755
243.8	6.04253
244.02	4.56544
244.24	7.34709
244.459	7.86489
244.679	14.2378
244.899	9.30649
245.118	9.14688
245.338	9.41176
245.558	10.69093
245.777	6.65851
245.997	7.76887
246.216	7.5684
246.436	4.2898
246.655	3.14212
246.875	2.4712
247.094	5.12602
247.314	1.72607
247.533	2.63498
247.753	3.55901
247.972	2.88657
248.192	1.00828
248.411	1.54782
248.631	2.99979
248.85	3.98558
249.07	2.89776
249.289	4.95188
249.508	4.25453
249.728	5.996
249.947	6.65987
250.166	7.28097
250.386	4.5069
250.605	5.64647
250.824	8.80117
251.044	6.86748
251.263	20.7248
251.482	11.03521
251.701	9.38903
251.921	0.11939
252.14	3.0796
252.359	3.11519
252.578	8.3307
252.798	2.84236
253.017	7.41108
253.236	4.60487
253.455	4.7599
253.674	9.54003
253.893	4.62146
254.112	6.20101
254.331	9.90669
254.551	7.70826
254.77	3.55118
254.989	11.55086
255.208	10.71025
255.427	12.25075
255.646	10.04442
255.865	16.93899
256.084	7.08773
256.303	8.94416
256.522	11.49398
256.741	1.74311
256.96	3.48244
257.179	7.81504
257.397	9.13771
257.616	4.806
257.835	5.3844
258.054	12.09153
258.273	7.54781
258.492	8.83411
258.711	5.42997
258.93	2.3758
259.148	3.0814
259.367	3.20535
259.586	4.41528
259.805	2.11863
260.023	4.12368
260.242	3.25869
260.461	2.24853
260.68	1.3415
260.898	3.86061
261.117	1.40579
261.336	0.91682
261.554	3.20867
261.773	3.11895
261.992	0.72133
262.21	3.31667
262.429	3.88176
262.648	6.3305
262.866	7.29978
263.085	4.7753
263.303	4.50081
263.522	7.37756
263.74	7.81922
263.959	12.89378
264.178	6.51547
264.396	6.03918
264.615	4.13831
264.833	10.0487
265.051	8.48555
265.27	8.89504
265.488	9.06061
265.707	6.23102
265.925	8.89057
266.144	4.33321
266.362	5.33642
266.58	4.9823
266.799	4.04028
267.017	5.21465
267.235	4.95077
267.454	2.74957
267.672	2.12551
267.89	3.97024
268.109	3.99308
268.327	4.14469
268.545	0.98121
268.763	3.43733
268.982	1.52161
269.2	4.63174
269.418	2.62322
269.636	2.12485
269.854	3.54039
270.073	2.87812
270.291	1.68728
270.509	1.52788
270.727	4.19649
270.945	6.04397
271.163	6.19018
271.381	1.48748
271.599	2.61318
271.817	4.75085
272.036	1.5657
272.254	2.63816
272.472	2.32876
272.69	2.08647
272.908	2.23914
273.126	3.6393
273.344	4.78073
273.562	2.00761
273.779	2.44507
273.997	3.25629
274.215	4.18287
274.433	2.62692
274.651	4.24096
274.869	4.18685
275.087	2.63452
275.305	3.85128
275.523	1.92232
275.74	3.14587
275.958	4.82602
276.176	7.25948
276.394	2.04365
276.612	2.76777
276.829	2.8419
277.047	2.2128
277.265	2.504
277.483	3.42761
277.7	3.9726
277.918	2.91246
278.136	5.64507
278.353	2.81588
278.571	1.4241
278.789	4.44983
279.006	1.07461
279.224	2.69835
279.442	4.55788
279.659	2.97566
279.877	2.19985
280.094	4.82667
280.312	1.04165
280.529	3.03677
280.747	0.87478
280.964	2.20505
281.182	5.26624
281.399	2.49258
281.617	3.36267
281.834	2.51109
282.052	2.06562
282.269	2.95795
282.487	2.21836
282.704	1.79754
282.921	2.11685
283.139	2.71268
283.356	3.68383
283.574	3.2729
283.791	1.76156
284.008	4.61034
284.226	2.6883
284.443	3.00391
284.66	3.6448
284.877	3.13909
285.095	1.99665
285.312	1.41576
285.529	0.95056
285.746	0.82187
285.964	1.86088
286.181	1.15978
286.398	1.72121
286.615	2.41744
286.832	2.34226
287.05	0.71145
287.267	1.70537
287.484	1.79766
287.701	2.54861
287.918	2.45793
288.135	2.49757
288.352	1.1894
288.569	1.45427
288.786	2.22874
289.003	1.69359
289.22	2.56516
289.437	1.61374
289.654	2.78512
289.871	2.80578
290.088	2.6929
290.305	1.97718
290.522	1.67736
290.739	1.95882
290.956	3.03253
291.173	3.49663
291.39	3.17593
291.607	2.33887
291.824	1.67253
292.04	0.87371
292.257	2.80241
292.474	3.01316
292.691	1.91834
292.908	1.0927
293.125	1.73442
293.341	1.09218
293.558	4.87824
293.775	1.83349
293.992	1.88055
294.208	0.9288
294.425	1.10796
294.642	1.63566
294.858	2.19187
295.075	0.66483
295.292	1.80015
295.508	2.08557
295.725	3.65203
295.942	1.73995
296.158	1.14298
296.375	1.9791
296.591	1.44284
296.808	1.62402
297.024	1.83383
297.241	2.0415
297.458	2.23217
297.674	0.15007
297.891	1.73839
298.107	1.30893
298.323	1.01229
298.54	2.58962
298.756	1.19248
298.973	0.66655
299.189	2.66591
299.406	1.1759
299.622	2.69382
299.838	2.60751
300.055	2.58169
300.271	0.64409
300.487	0.90633
300.704	1.04771
300.92	0.61027
301.136	3.71978
301.353	2.60192
301.569	1.82824
301.785	2.18595
302.001	2.5251
302.218	2.12222
302.434	2.03398
302.65	0.52382
302.866	1.48319
303.083	3.66634
303.299	3.47255
303.515	1.59857
303.731	2.02956
303.947	0.65256
304.163	1.18923
304.379	2.21118
304.595	2.38812
304.812	1.3865
305.028	1.2105
305.244	1.45188
305.46	2.62967
305.676	2.57226
305.892	3.09108
306.108	1.91546
306.324	1.47923
306.54	3.51839
306.756	2.43821
306.972	2.47084
307.187	1.62815
307.403	2.97685
307.619	1.32869
307.835	2.85464
308.051	3.21713
308.267	0.60003
308.483	2.72897
308.699	2.43221
308.914	1.9254
309.13	1.65016
309.346	0.44541
309.562	1.0138
309.778	0.64508
309.993	2.32017
310.209	1.77378
310.425	0.90929
310.641	1.53651
310.856	0.84882
311.072	0.91646
311.288	1.69529
311.503	1.85607
311.719	0.28459
311.935	0.23448
312.15	2.09926
312.366	1.79362
312.581	2.33072
312.797	1.77075
313.013	2.47843
313.228	1.42581
313.444	2.00813
313.659	1.33275
313.875	2.12848
314.09	1.73118
314.306	2.89334
314.521	2.60528
314.737	2.51188
314.952	2.03953
315.168	1.7109
315.383	2.52932
315.599	1.65021
315.814	1.5732
316.029	2.39348
316.245	0.74894
316.46	0.71648
316.675	2.88264
316.891	3.70211
317.106	4.48138
317.321	2.58871
317.537	2.26857
317.752	2.54114
317.967	2.5206
318.183	1.17123
318.398	1.43091
318.613	2.76974
318.828	3.22198
319.043	2.70561
319.259	1.68067
319.474	2.19579
319.689	2.96014
319.904	0.40837
320.119	2.64406
320.334	2.24465
320.549	1.84037
320.765	2.81134
320.98	2.43488
321.195	2.93731
321.41	1.75244
321.625	2.57076
321.84	3.58038
322.055	3.6172
322.27	1.29739
322.485	0.99467
322.7	1.95455
322.915	2.89094
323.13	1.18952
323.345	3.19428
323.56	2.74416
323.775	2.42382
323.989	2.42343
324.204	2.13178
324.419	2.62256
324.634	0.82303
324.849	1.75962
325.064	4.08968
325.279	2.80662
325.493	2.58359
325.708	2.83751
325.923	1.14806
326.138	1.27879
326.352	3.25994
326.567	2.71122
326.782	1.56297
326.997	1.23809
327.211	2.40789
327.426	2.28861
327.641	1.5273
327.855	0.57175
328.07	2.42381
328.285	3.36134
328.499	1.57988
328.714	2.70227
328.928	2.70244
329.143	2.11513
329.358	2.83222
329.572	2.87504
329.787	3.1997
330.001	4.29058
330.216	0.89
330.43	3.57426
330.645	3.57761
330.859	2.89466
331.074	1.53053
331.288	2.20962
331.503	3.08428
331.717	1.12376
331.931	2.11914
332.146	2.08737
332.36	3.59545
332.575	2.69713
332.789	2.36527
333.003	1.77328
333.218	2.58715
333.432	1.65653
333.646	2.55976
333.86	3.40905
334.075	3.47654
334.289	1.61623
334.503	1.25613
334.717	2.60913
334.932	2.3612
335.146	3.24831
335.36	1.76413
335.574	2.36546
335.788	2.31897
336.003	3.09282
336.217	2.45722
336.431	2.57549
336.645	1.69898
336.859	1.02875
337.073	1.70748
337.287	2.38465
337.501	1.21898
337.715	2.20042
337.929	2.66688
338.143	1.25224
338.357	2.04915
338.571	1.19864
338.785	2.37408
338.999	1.61433
339.213	1.85358
339.427	0.75793
339.641	2.80793
339.855	1.88545
340.069	1.40737
340.283	3.0311
340.497	3.24455
340.711	2.27506
340.924	1.54024
341.138	0.96727
341.352	0.88907
341.566	2.2432
341.78	0.59021
341.993	1.50855
342.207	1.09323
342.421	2.23195
342.635	2.11846
342.848	1.57956
343.062	0.14447
343.276	1.45213
343.49	3.88917
343.703	1.51591
343.917	2.65377
344.131	2.71155
344.344	1.4288
344.558	1.56351
344.771	1.34703
344.985	3.05903
345.199	3.30202
345.412	2.0608
345.626	2.10575
345.839	0.53835
346.053	1.0413
346.266	1.12744
346.48	2.63104
346.693	2.1381
346.907	2.44365
347.12	1.20471
347.334	2.19226
347.547	2.23047
347.76	1.70441
347.974	2.95529
348.187	2.17495
348.401	1.6445
348.614	1.57687
348.827	1.69333
349.041	2.37618
349.254	0.48278
349.467	1.80338
349.681	0.76934
349.894	1.31828
350.107	3.00325
350.32	3.17771
350.534	0.49896
350.747	1.52589
350.96	1.30073
351.173	1.35493
351.386	1.7996
351.6	1.62352
351.813	1.26186
352.026	1.92902
352.239	0.9929
352.452	1.6144
352.665	2.30561
352.878	1.58988
353.092	3.63433
353.305	2.39122
353.518	2.03714
353.731	1.17951
353.944	2.93299
354.157	1.28679
354.37	1.10562
354.583	0.86811
354.796	0.61723
355.009	2.67128
355.222	1.85718
355.435	1.87396
355.647	2.71573
355.86	0.9718
356.073	1.66827
356.286	1.32788
356.499	2.14019
356.712	1.97217
356.925	2.17031
357.138	2.4986
357.35	0.92984
357.563	1.43169
357.776	1.87955
357.989	1.43821
358.201	2.25742
358.414	1.5836
358.627	2.69988
358.84	1.41032
359.052	1.0202
359.265	0.85262
359.478	2.48991
359.69	-0.51464
359.903	2.03171
360.116	2.28288
360.328	0.37371
360.541	2.26058
360.753	0.87998
360.966	1.1173
361.179	1.12603
361.391	1.19083
361.604	0.71152
361.816	1.1
362.029	0.90607
362.241	0.87848
362.454	1.01149
362.666	0.84664
362.879	1.35927
363.091	1.20509
363.304	0.92545
363.516	1.51803
363.728	0.59335
363.941	1.89444
364.153	0.8692
364.366	-0.0896
364.578	0.75807
364.79	1.71943
365.003	1.37123
365.215	1.20831
365.427	1.8163
365.639	2.52946
365.852	1.77634
366.064	3.05952
366.276	1.07369
366.488	1.85291
366.701	1.1324
366.913	1.30719
367.125	1.39078
367.337	1.00158
367.549	1.30861
367.762	1.54565
367.974	1.55229
368.186	0.83218
368.398	2.4348
368.61	2.08937
368.822	2.07251
369.034	1.51069
369.246	2.03292
369.458	3.20112
369.67	0.84857
369.882	3.07348
370.094	0.21374
370.306	2.9033
370.518	1.2107
370.73	0.82767
370.942	0.91522
371.154	1.15667
371.366	0.91553
371.578	1.66771
371.79	0.69407
372.002	2.40551
372.214	2.68237
372.425	1.59343
372.637	2.4975
372.849	1.53196
373.061	0.04111
373.273	1.90564
373.484	1.98222
373.696	2.20442
373.908	0.09061
374.12	2.18265
374.331	1.93469
374.543	0.68877
374.755	0.74136
374.967	1.70495
375.178	2.09514
375.39	1.34951
375.602	1.70678
375.813	0.69454
376.025	0.23081
376.236	1.37972
376.448	1.587
376.66	0.9246
376.871	1.07235
377.083	2.2755
377.294	2.05936
377.506	1.07998
377.717	2.26066
377.929	1.56529
378.14	0.83273
378.352	1.87799
378.563	1.75884
378.775	2.28445
378.986	0.98402
379.197	1.26804
379.409	1.18712
379.62	2.0381
379.832	1.61292
380.043	1.13748
380.254	1.41021
380.466	0.64963
380.677	3.59474
380.888	3.10288
381.1	3.24433
381.311	2.89759
381.522	1.3683
381.733	3.61961
381.945	1.21719
382.156	1.56771
382.367	1.11626
382.578	3.40027
382.789	3.43711
383.001	1.09582
383.212	2.22077
383.423	2.46771
383.634	2.18767
383.845	1.58558
384.056	1.03101
384.267	1.3015
384.478	1.16875
384.69	0.51404
384.901	1.91782
385.112	1.7164
385.323	2.38497
385.534	1.72693
385.745	1.6696
385.956	1.74536
386.167	0.67016
386.378	1.58358
386.588	0.51927
386.799	0.78765
387.01	0.24905
387.221	1.9363
387.432	1.33452
387.643	2.85794
387.854	1.32464
388.065	1.19403
388.275	1.20374
388.486	1.10063
388.697	1.13692
388.908	1.12318
389.119	2.24278
389.329	2.62142
389.54	1.50912
389.751	1.78938
389.962	2.18221
390.172	1.56638
390.383	1.05179
390.594	0.97005
390.804	0.90823
391.015	0.96203
391.226	1.46179
391.436	1.83446
391.647	1.66125
391.858	1.7257
392.068	0.29198
392.279	0.6683
392.489	1.45957
392.7	2.14426
392.91	0.74635
393.121	0.96675
393.331	1.8179
393.542	2.2699
393.752	1.84813
393.963	1.50583
394.173	1.65584
394.384	1.98883
394.594	1.35887
394.804	0.71838
395.015	1.61883
395.225	1.90239
395.436	0.79689
395.646	1.97896
395.856	1.0935
396.067	0.76115
396.277	2.30198
396.487	1.85029
396.697	1.78127
396.908	2.13622
397.118	2.03142
397.328	1.83041
397.538	2.46331
397.749	1.28956
397.959	2.41179
398.169	2.32953
398.379	0.89595
398.589	2.08849
398.8	2.12169
399.01	1.72371
399.22	1.74949
399.43	3.59092
399.64	1.68987
399.85	2.47116
400.06	1.99997
400.27	1.68921
400.48	2.04121
400.69	3.01505
400.9	1.709
401.11	1.3551
401.32	2.81376
401.53	1.86202
401.74	3.09133
401.95	2.68299
402.16	1.8098
402.37	2.66108
402.58	1.81359
402.79	2.70556
403	2.92769
403.209	2.03749
403.419	3.06175
403.629	2.13799
403.839	3.14548
404.049	3.14949
404.258	2.10903
404.468	2.22182
404.678	3.18878
404.888	3.55351
405.097	2.55827
405.307	2.60269
405.517	3.15179
405.727	3.1565
405.936	2.44869
406.146	3.21206
406.356	3.68526
406.565	2.91752
406.775	2.58896
406.984	2.67565
407.194	4.37902
407.404	3.1567
407.613	3.35239
407.823	3.72707
408.032	4.16458
408.242	3.82491
408.451	2.88628
408.661	3.08927
408.87	4.29719
409.08	2.8948
409.289	3.66282
409.499	3.54945
409.708	3.43005
409.918	1.9889
410.127	3.72503
410.336	4.6163
410.546	4.18886
410.755	3.41744
410.964	3.41714
411.174	3.01946
411.383	4.06379
411.592	3.72159
411.802	3.0956
412.011	4.29595
412.22	3.68266
412.429	4.88864
412.639	4.8086
412.848	4.65465
413.057	5.06243
413.266	4.64201
413.475	4.12805
413.685	4.54596
413.894	4.52864
414.103	4.77174
414.312	4.6214
414.521	3.94509
414.73	4.56039
414.939	5.51539
415.148	4.5639
415.357	4.51702
415.566	4.49469
415.776	4.17849
415.985	4.21409
416.194	5.06183
416.403	5.91094
416.611	3.8706
416.82	4.35322
417.029	4.76176
417.238	4.51745
417.447	4.35627
417.656	4.85753
417.865	4.71782
418.074	5.09484
418.283	5.50709
418.492	6.40975
418.7	6.26185
418.909	7.7047
419.118	6.42995
419.327	6.97602
419.536	6.74446
419.744	6.76077
419.953	8.18907
420.162	8.25726
420.371	7.38408
420.579	7.86763
420.788	8.92502
420.997	8.9564
421.205	9.01131
421.414	8.85593
421.623	9.14884
421.831	8.4423
422.04	9.09464
422.249	8.25089
422.457	8.44139
422.666	8.03249
422.874	9.08882
423.083	9.07464
423.291	9.03789
423.5	9.09621
423.708	9.23314
423.917	9.98564
424.125	9.17797
424.334	9.19592
424.542	10.8599
424.751	10.43009
424.959	9.81406
425.167	10.29687
425.376	10.02528
425.584	8.98421
425.793	8.8639
426.001	7.68152
426.209	8.24873
426.418	7.05703
426.626	6.60007
426.834	6.30467
427.042	6.40347
427.251	6.03715
427.459	6.73614
427.667	6.45461
427.875	5.58396
428.084	6.13463
428.292	7.15543
428.5	6.80949
428.708	5.76346
428.916	5.77351
429.124	6.31928
429.333	6.25832
429.541	6.33515
429.749	6.54258
429.957	6.45532
430.165	7.98851
430.373	5.51007
430.581	6.44114
430.789	7.46661
430.997	6.46873
431.205	6.00332
431.413	6.78494
431.621	6.32338
431.829	7.08589
432.037	6.47573
432.245	6.65414
432.453	7.05344
432.661	6.64696
432.869	8.17067
433.076	6.70787
433.284	7.34885
433.492	8.03849
433.7	8.22479
433.908	7.35196
434.116	7.59033
434.323	7.4017
434.531	7.25559
434.739	7.51576
434.947	7.47169
435.154	7.61306
435.362	6.95733
435.57	6.90073
435.778	6.56102
435.985	7.13994
436.193	6.62949
436.401	7.86019
436.608	7.13657
436.816	6.87836
437.023	7.80485
437.231	8.22133
437.439	7.31337
437.646	7.57373
437.854	7.44211
438.061	7.67405
438.269	7.20308
438.476	7.82394
438.684	7.55643
438.891	7.62914
439.099	7.68145
439.306	7.46989
439.514	7.52818
439.721	9.15392
439.929	8.46487
440.136	9.40189
440.343	9.54657
440.551	9.20355
440.758	11.17133
440.965	9.76164
441.173	9.56056
441.38	8.97987
441.587	9.03895
441.795	8.64205
442.002	8.35906
442.209	8.36734
442.416	8.36334
442.624	8.05984
442.831	7.81347
443.038	7.20472
443.245	6.99457
443.452	7.29472
443.66	7.85489
443.867	7.30071
444.074	7.23734
444.281	7.48887
444.488	7.83146
444.695	8.18041
444.902	8.32746
445.109	9.69194
445.316	9.33047
445.523	9.72055
445.73	9.66857
445.937	10.74015
446.144	11.01013
446.351	11.69802
446.558	10.52612
446.765	12.18309
446.972	11.71824
447.179	11.09248
447.386	11.71402
447.593	10.0341
447.8	11.06239
448.007	9.63725
448.214	8.98738
448.42	8.44585
448.627	9.04463
448.834	8.19897
449.041	8.007
449.248	7.57153
449.454	8.17093
449.661	8.47075
449.868	7.32932
450.075	7.23356
450.281	6.59986
450.488	6.98476
450.695	7.01026
450.901	7.01661
451.108	7.35421
451.315	8.16322
451.521	7.27659
451.728	8.25548
451.935	7.27938
452.141	7.43205
452.348	7.63364
452.554	7.70067
452.761	7.36624
452.967	8.60503
453.174	7.88544
453.38	7.88464
453.587	6.99379
453.793	7.76344
454	8.16917
454.206	9.08574
454.413	8.38156
454.619	8.11749
454.825	7.15636
455.032	7.99916
455.238	8.10643
455.445	6.9342
455.651	7.81477
455.857	6.63844
456.064	7.47598
456.27	7.42822
456.476	7.46865
456.682	6.82687
456.889	7.81314
457.095	8.04394
457.301	9.00202
457.507	7.81659
457.714	7.63667
457.92	7.99015
458.126	7.35357
458.332	7.74084
458.538	7.6126
458.744	8.2524
458.951	8.62858
459.157	10.91525
459.363	10.25155
459.569	10.59539
459.775	11.24768
459.981	10.97134
460.187	11.25794
460.393	11.25582
460.599	11.55421
460.805	10.5695
461.011	9.4741
461.217	9.68465
461.423	8.8199
461.629	8.13283
461.835	8.45553
462.041	7.9103
462.247	9.10073
462.453	7.95057
462.658	7.71224
462.864	8.38085
463.07	8.06412
463.276	7.93846
463.482	7.79523
463.688	9.03293
463.893	7.57546
464.099	7.85711
464.305	8.80912
464.511	7.73561
464.716	7.85237
464.922	8.49295
465.128	7.35574
465.333	8.96657
465.539	8.48637
465.745	8.21346
465.95	7.94332
466.156	9.90594
466.362	8.78837
466.567	8.13871
466.773	7.85516
466.978	9.11452
467.184	7.6628
467.389	7.10028
467.595	8.33181
467.8	7.70345
468.006	8.95906
468.211	9.02998
468.417	7.54478
468.622	8.54656
468.828	8.55782
469.033	8.35503
469.239	10.00309
469.444	7.88328
469.649	8.89512
469.855	8.20412
470.06	8.33768
470.266	7.49173
470.471	8.51405
470.676	8.53521
470.881	6.88472
471.087	9.18072
471.292	9.52309
471.497	7.34058
471.703	8.09655
471.908	7.90027
472.113	8.2279
472.318	8.86936
472.523	7.69326
472.729	8.46059
472.934	8.54204
473.139	8.26622
473.344	8.72986
473.549	9.14723
473.754	7.84998
473.959	9.75078
474.164	7.91594
474.369	8.21788
474.575	8.59386
474.78	8.34223
474.985	7.76239
475.19	7.04072
475.395	7.65892
475.6	8.06746
475.804	9.37269
476.009	8.07553
476.214	8.23629
476.419	8.13834
476.624	7.36451
476.829	7.96667
477.034	8.75385
477.239	7.9615
477.444	8.65281
477.648	8.79659
477.853	8.82675
478.058	8.13671
478.263	8.10448
478.468	7.80672
478.672	7.85892
478.877	9.53526
479.082	9.62585
479.287	8.86641
479.491	8.53038
479.696	8.01244
479.901	9.03461
480.105	8.80469
480.31	8.05988
480.515	8.64619
480.719	9.96918
480.924	8.29257
481.128	8.18458
481.333	9.23124
481.538	9.59927
481.742	9.68487
481.947	11.20546
482.151	12.19362
482.356	13.01299
482.56	15.51515
482.765	17.41013
482.969	20.96803
483.174	23.60128
483.378	27.35165
483.582	28.24481
483.787	30.07333
483.991	30.40795
484.196	30.52721
484.4	29.7461
484.604	30.00887
484.809	26.78835
485.013	25.38668
485.217	22.6132
485.422	19.96244
485.626	18.14168
485.83	17.24989
486.034	16.72515
486.239	17.33602
486.443	17.76099
486.647	18.42767
486.851	19.93796
487.055	21.46334
487.26	21.26989
487.464	22.47554
487.668	21.7071
487.872	21.98118
488.076	22.40332
488.28	21.23883
488.484	19.9062
488.688	19.07382
488.892	18.12355
489.096	16.86481
489.3	15.31786
489.504	14.34954
489.708	13.64874
489.912	13.48332
490.116	13.09593
490.32	12.78045
490.524	14.10121
490.728	15.39635
490.932	16.19043
491.136	17.21158
491.34	18.66193
491.544	19.07577
491.748	18.80418
491.951	18.79136
492.155	18.02478
492.359	17.45542
492.563	15.36937
492.767	14.6559
492.97	12.8391
493.174	11.58185
493.378	10.79235
493.582	9.35911
493.785	9.06207
493.989	8.84181
494.193	8.44347
494.396	7.95219
494.6	8.48054
494.804	8.04267
495.007	8.31955
495.211	8.57628
495.414	8.5014
495.618	8.87671
495.822	9.5651
496.025	8.79812
496.229	9.42238
496.432	9.0129
496.636	9.4656
496.839	9.34051
497.043	10.43011
497.246	9.5442
497.45	9.19952
497.653	9.40171
497.856	9.24777
498.06	8.81178
498.263	8.82574
498.467	8.91834
498.67	9.41926
498.873	9.06888
499.077	8.72034
499.28	8.79674
499.483	9.03002
499.686	9.35032
499.89	8.94257
500.093	9.47034
500.296	8.38564
500.499	9.87469
500.703	8.86707
500.906	9.06365
501.109	10.01057
501.312	8.99195
501.515	8.80671
501.719	9.10296
501.922	9.62998
502.125	8.84877
502.328	8.82753
502.531	8.04936
502.734	8.77027
502.937	7.88519
503.14	8.97488
503.343	8.40928
503.546	8.71858
503.749	8.64798
503.952	9.10632
504.155	8.44308
504.358	9.29
504.561	9.00399
504.764	8.10026
504.967	8.9697
505.17	8.78104
505.373	9.90433
505.576	8.78922
505.778	9.39652
505.981	8.50646
506.184	9.67347
506.387	7.91744
506.59	10.13091
506.793	9.51065
506.995	9.17521
507.198	7.69764
507.401	9.09077
507.604	9.30405
507.806	8.25781
508.009	8.46644
508.212	9.41159
508.414	8.57097
508.617	8.4877
508.82	8.96433
509.022	9.9528
509.225	9.30531
509.427	8.13615
509.63	9.80736
509.833	8.98029
510.035	8.69844
510.238	8.13943
510.44	9.73627
510.643	7.97364
510.845	10.10298
511.048	9.01297
511.25	8.5812
511.453	8.83258
511.655	9.17531
511.858	8.79208
512.06	9.5775
512.262	8.93752
512.465	9.58072
512.667	8.91266
512.869	8.25892
513.072	9.27684
513.274	9.39112
513.476	9.4577
513.679	9.62399
513.881	8.41905
514.083	9.84034
514.286	8.609
514.488	8.46369
514.69	8.5646
514.892	8.13904
515.094	9.36597
515.297	8.70718
515.499	9.05656
515.701	8.43051
515.903	10.01398
516.105	9.96384
516.307	9.34418
516.509	7.77855
516.711	8.33309
516.913	8.97842
517.116	8.95485
517.318	8.74323
517.52	9.66916
517.722	9.44204
517.924	8.94247
518.126	10.03071
518.328	9.69841
518.529	10.40762
518.731	11.26325
518.933	9.65365
519.135	9.88042
519.337	10.52901
519.539	9.91034
519.741	8.18363
519.943	9.0446
520.145	8.86239
520.346	9.58985
520.548	8.93875
520.75	9.25846
520.952	8.82294
521.153	9.27976
521.355	9.09758
521.557	8.47672
521.759	8.96809
521.96	8.80374
522.162	8.26145
522.364	9.62911
522.565	8.41337
522.767	9.52183
522.969	9.43275
523.17	9.13539
523.372	9.08714
523.573	8.86112
523.775	8.96449
523.977	8.29382
524.178	10.10046
524.38	8.54662
524.581	9.57868
524.783	8.79824
524.984	10.04089
525.186	9.87057
525.387	10.69142
525.589	10.59318
525.79	10.58935
525.991	10.41748
526.193	11.31067
526.394	10.52497
526.596	11.53293
526.797	11.92202
526.998	11.57192
527.2	12.02374
527.401	14.57243
527.602	15.92485
527.803	18.77506
528.005	20.20974
528.206	21.65221
528.407	22.66509
528.608	22.63454
528.81	23.01728
529.011	22.23662
529.212	22.92721
529.413	21.17859
529.614	19.38877
529.815	18.22658
530.017	16.66088
530.218	14.46812
530.419	12.95951
530.62	12.46371
530.821	11.85524
531.022	10.2994
531.223	11.36741
531.424	11.10443
531.625	11.46108
531.826	11.06174
532.027	11.92849
532.228	13.59311
532.429	13.56039
532.63	14.21321
532.831	15.12726
533.032	15.16312
533.233	16.21576
533.433	15.58469
533.634	15.85169
533.835	15.0438
534.036	14.04245
534.237	13.33633
534.438	12.40423
534.638	10.76323
534.839	10.465
535.04	10.27101
535.241	9.52459
535.441	10.95765
535.642	10.34659
535.843	9.59567
536.043	10.1784
536.244	10.28994
536.445	10.83382
536.645	11.63081
536.846	11.3909
537.047	11.52954
537.247	10.11659
537.448	9.96292
537.648	9.78998
537.849	9.18915
538.049	9.26897
538.25	9.69797
538.451	9.64612
538.651	8.70014
538.851	9.51946
539.052	10.04931
539.252	9.69166
539.453	9.02244
539.653	9.23475
539.854	9.21144
540.054	10.36836
540.254	12.19242
540.455	13.5035
540.655	13.75679
540.855	15.45947
541.056	16.84805
541.256	16.5978
541.456	17.56668
541.657	16.81356
541.857	17.4692
542.057	15.69797
542.257	14.92878
542.458	15.10697
542.658	14.34783
542.858	12.51002
543.058	12.71622
543.258	11.73186
543.458	10.05724
543.659	9.50468
543.859	10.57747
544.059	10.34781
544.259	9.36501
544.459	9.80085
544.659	8.94824
544.859	9.55242
545.059	8.9222
545.259	9.75162
545.459	9.36905
545.659	9.89208
545.859	9.34165
546.059	9.36572
546.259	8.78581
546.459	8.59508
546.659	8.60867
546.859	9.89102
547.059	9.38612
547.258	9.48255
547.458	9.5967
547.658	8.77887
547.858	8.39107
548.058	9.32363
548.258	9.04454
548.457	8.42803
548.657	10.71748
548.857	8.9741
549.057	9.5615
549.256	9.36619
549.456	8.66074
549.656	7.45162
549.855	10.39299
550.055	8.7005
550.255	10.54206
550.454	9.25712
550.654	9.45103
550.853	10.15043
551.053	9.60671
551.253	9.19183
551.452	9.26617
551.652	8.09209
551.851	8.05918
552.051	8.86869
552.25	8.55308
552.45	8.57607
552.649	8.85622
552.849	8.44443
553.048	9.03752
553.248	9.44029
553.447	8.21588
553.646	9.59555
553.846	10.42749
554.045	9.72345
554.244	7.89831
554.444	10.10671
554.643	8.28148
554.842	10.13871
555.042	10.46185
555.241	8.41376
555.44	7.92975
555.64	9.67074
555.839	10.54406
556.038	9.30437
556.237	8.18778
556.436	9.04704
556.636	9.34399
556.835	8.68953
557.034	10.3306
557.233	8.93905
557.432	7.92555
557.631	10.04439
557.83	8.82762
558.029	8.49839
558.228	8.0189
558.427	8.29476
558.626	9.19689
558.825	8.04681
559.024	8.90177
559.223	10.31154
559.422	8.71345
559.621	9.14622
559.82	6.86598
560.019	9.00037
560.218	8.89894
560.417	6.65037
560.616	8.32444
560.815	11.8257
561.014	7.56066
561.212	10.29241
561.411	8.959
561.61	7.78017
561.809	8.56598
562.008	10.02112
562.206	8.51946
562.405	9.49338
562.604	8.71962
562.803	9.16392
563.001	8.56695
563.2	7.6981
563.399	9.03321
563.597	8.03733
563.796	8.66764
563.995	7.76798
564.193	9.46842
564.392	8.45738
564.59	10.71538
564.789	7.51379
564.988	8.26992
565.186	9.05637
565.385	8.64942
565.583	8.77328
565.782	8.99884
565.98	8.98393
566.179	8.90879
566.377	8.25288
566.575	8.58807
566.774	10.18636
566.972	9.74661
567.171	10.70408
567.369	10.06658
567.567	9.20005
567.766	9.15486
567.964	7.25415
568.162	9.1185
568.361	9.75545
568.559	8.83602
568.757	9.22477
568.956	9.03209
569.154	8.91757
569.352	9.43078
569.55	9.03708
569.748	8.90922
569.947	8.38884
570.145	8.26024
570.343	7.98602
570.541	9.79707
570.739	7.84283
570.937	8.8557
571.135	9.45849
571.333	10.7758
571.532	10.52363
571.73	9.33228
571.928	9.72139
572.126	9.54561
572.324	8.73587
572.522	10.37926
572.72	11.60911
572.918	9.24819
573.116	9.53798
573.313	8.99265
573.511	9.13896
573.709	8.1372
573.907	9.78872
574.105	8.71915
574.303	7.5712
574.501	7.75949
574.699	9.19327
574.896	9.30208
575.094	9.37649
575.292	7.94838
575.49	9.82971
575.688	8.76564
575.885	10.20718
576.083	10.97601
576.281	9.49552
576.478	7.994
576.676	9.37711
576.874	7.30715
577.071	8.6739
577.269	10.98272
577.467	9.10557
577.664	8.84454
577.862	9.96534
578.059	7.94953
578.257	9.73415
578.455	8.5381
578.652	8.94688
578.85	6.87629
579.047	8.60416
579.245	8.76319
579.442	8.64496
579.64	8.88577
579.837	6.96026
580.034	11.66861
580.232	8.6522
580.429	7.27023
580.627	9.23834
580.824	10.47003
581.021	9.52613
581.219	8.59758
581.416	8.18236
581.613	10.36728
581.811	10.12938
582.008	7.74238
582.205	9.84274
582.402	9.07963
582.6	10.4954
582.797	8.60733
582.994	8.98684
583.191	9.28017
583.388	8.6562
583.586	9.60025
583.783	9.72273
583.98	8.18981
584.177	9.40121
584.374	5.98032
584.571	8.39329
584.768	8.50514
584.965	8.1413
585.162	9.17644
585.359	11.03654
585.556	8.83504
585.753	9.01065
585.95	7.53386
586.147	8.0433
586.344	9.82325
586.541	8.5416
586.738	7.2684
586.935	8.58263
587.132	8.22091
587.329	10.18773
587.526	8.83846
587.722	14.3239
587.919	7.34288
588.116	9.34311
588.313	10.13177
588.51	11.1855
588.706	8.32773
588.903	9.31011
589.1	9.9139
589.297	11.32223
589.493	9.10308
589.69	9.59352
589.887	8.32632
590.083	7.8241
590.28	8.37737
590.477	9.62738
590.673	9.98571
590.87	10.40096
591.067	8.99062
591.263	9.43439
591.46	9.12378
591.656	8.55945
591.853	10.31906
592.049	7.78733
592.246	8.18274
592.442	10.09916
592.639	10.47828
592.835	7.88249
593.032	9.46728
593.228	7.49176
593.425	7.20997
593.621	7.03784
593.817	8.92792
594.014	7.96658
594.21	9.04667
594.406	10.11753
594.603	9.53771
594.799	8.03593
594.995	6.49498
595.192	10.11806
595.388	8.45671
595.584	8.76561
595.78	7.48754
595.977	11.39982
596.173	10.9418
596.369	8.83632
596.565	8.01062
596.761	7.44472
596.957	10.46774
597.154	8.26002
597.35	8.59721
597.546	8.11416
597.742	9.97763
597.938	9.16458
598.134	8.40515
598.33	9.11506
598.526	10.54726
598.722	9.31448
598.918	11.0807
599.114	9.5291
599.31	7.82472
599.506	8.70881
599.702	8.16554
599.898	9.13104
600.094	9.72628
600.29	9.62626
600.485	10.54598
600.681	8.1344
600.877	11.04118
601.073	9.05868
601.269	11.53445
601.465	10.515
601.66	7.75443
601.856	6.73423
602.052	10.98531
602.248	8.71073
602.443	7.01307
602.639	7.64149
602.835	8.16458
603.03	8.07783
603.226	10.11333
603.422	7.95186
603.617	8.79809
603.813	8.99435
604.009	8.83026
604.204	10.52356
604.4	7.82535
604.595	10.36129
604.791	8.10342
604.986	9.2939
605.182	8.49108
605.377	8.74831
605.573	8.47777
605.768	9.35753
605.964	9.85628
606.159	10.01224
606.355	10.23007
606.55	8.65079
606.746	10.67863
606.941	8.87989
607.136	11.38008
607.332	12.71471
607.527	7.54274
607.722	9.46749
607.918	8.40035
608.113	7.99624
608.308	9.97281
608.503	9.64431
608.699	9.75206
608.894	10.081
609.089	8.37352
609.284	9.47894
609.479	8.76397
609.675	10.26173
609.87	9.19835
610.065	10.24282
610.26	10.29429
610.455	9.83957
610.65	9.11703
610.845	9.12491
611.04	10.23465
611.235	8.67079
611.43	8.62661
611.625	7.66823
611.82	10.90548
612.015	8.1746
612.21	10.97244
612.405	7.14081
612.6	11.43226
612.795	10.85393
612.99	9.86029
613.185	7.84559
613.38	8.06268
613.575	9.07535
613.77	13.36583
613.965	7.0664
614.159	7.7326
614.354	10.91043
614.549	10.76666
614.744	10.02498
614.938	7.92738
615.133	7.15873
615.328	11.64985
615.523	10.43604
615.717	13.27355
615.912	7.90145
616.107	9.56226
616.301	8.83604
616.496	8.42134
616.691	11.30794
616.885	10.39694
617.08	13.74285
617.274	10.93897
617.469	12.46255
617.664	10.42019
617.858	8.53435
618.053	9.79542
618.247	8.81994
618.442	5.82912
618.636	11.64046
618.831	8.49432
619.025	8.49333
619.219	13.41225
619.414	5.02743
619.608	8.97535
619.803	8.72914
619.997	12.62827
620.191	11.33675
620.386	9.95318
620.58	9.45566
620.774	6.99952
620.969	7.087
621.163	9.49224
621.357	7.83305
621.551	8.74279
621.746	9.42127
621.94	8.69054
622.134	14.623
622.328	12.77775
622.522	6.97739
622.716	11.07504
622.911	10.62834
623.105	10.89297
623.299	10.27171
623.493	14.62677
623.687	8.23663
623.881	9.06599
624.075	9.82757
624.269	11.05609
624.463	6.30101
624.657	6.91776
624.851	10.27964
625.045	10.25853
625.239	11.03844
625.433	8.7386
625.627	11.72119
625.821	8.50879
626.015	8.62702
626.209	9.69411
626.403	7.31391
626.596	9.97722
626.79	10.47192
626.984	7.98176
627.178	10.18205
627.372	10.40485
627.565	10.6426
627.759	7.2591
627.953	7.80961
628.147	10.21322
628.34	10.27183
628.534	12.90607
628.728	9.52438
628.921	10.90786
629.115	10.55913
629.309	11.23858
629.502	11.1319
629.696	9.45302
629.89	9.36929
630.083	10.05008
630.277	10.56865
630.47	12.69983
630.664	8.85367
630.857	7.52896
631.051	10.8997
631.244	11.88526
631.438	10.75833
631.631	8.2848
631.825	12.29118
632.018	10.93409
632.212	12.32586
632.405	12.13116
632.598	8.63473
632.792	9.9402
632.985	6.12563
633.178	9.23776
633.372	9.5296
633.565	9.62323
633.758	12.20366
633.952	7.55047
634.145	8.09532
634.338	9.26634
634.531	8.70157
634.724	8.9471
634.918	9.4502
635.111	9.1332
635.304	9.02651
635.497	14.33458
635.69	9.99773
635.883	11.94719
636.077	7.74878
636.27	10.75257
636.463	9.79308
636.656	10.62246
636.849	9.09896
637.042	11.59598
637.235	12.89432
637.428	11.19715
637.621	11.35206
637.814	12.70638
638.007	12.96546
638.2	12.18196
638.393	13.14974
638.586	7.71246
638.778	9.84965
638.971	10.10215
639.164	13.2518
639.357	10.33435
639.55	13.18525
639.743	11.82223
639.935	10.71785
640.128	14.15588
640.321	11.60318
640.514	10.36875
640.707	15.43917
640.899	11.61309
641.092	7.1704
641.285	26.30298
641.477	6.22876
641.67	15.43941
641.863	13.27557
642.055	10.38196
642.248	10.01091
642.441	9.42145
642.633	11.54418
642.826	13.5002
643.018	13.39428
643.211	14.67479
643.403	14.51044
643.596	15.18296
643.788	15.50866
643.981	10.07718
644.173	13.11983
644.366	10.66069
644.558	6.75844
644.751	13.16976
644.943	7.59443
645.135	14.04506
645.328	15.33853
645.52	12.33188
645.712	13.68435
645.905	17.98792
646.097	8.67947
646.289	11.40733
646.482	15.69477
646.674	10.63157
646.866	13.92118
647.058	12.15601
647.251	8.38111
647.443	10.06008
647.635	11.10638
647.827	8.3232
648.019	10.2316
648.211	10.9961
648.404	10.88827
648.596	15.50193
648.788	11.48614
648.98	10.99896
649.172	12.63837
649.364	11.82647
649.556	7.86578
649.748	17.23563
649.94	9.25859
650.132	12.25928
650.324	8.64907
650.516	10.20488
650.708	14.22793
650.9	8.65736
651.092	10.235
651.284	8.19855
651.476	8.80223
651.667	12.71537
651.859	14.17908
652.051	11.27839
652.243	11.79939
652.435	9.65645
652.627	12.59138
652.818	11.75292
653.01	8.03748
653.202	8.91727
653.394	10.16554
653.585	12.7187
653.777	21.73795
653.969	14.23011
654.16	13.56873
654.352	8.45324
654.544	10.30067
654.735	13.58375
654.927	11.49866
655.118	14.77528
655.31	12.48985
655.502	13.92059
655.693	10.25777
655.885	13.28455
656.076	14.73062
656.268	12.61761
656.459	15.55167
656.651	15.2466
656.842	10.17211
657.034	9.60699
657.225	13.65664
657.416	14.47782
657.608	14.94983
657.799	11.40342
657.99	14.41532
658.182	10.07136
658.373	10.26522
658.564	13.37719
658.756	12.20695
658.947	11.3495
659.138	9.26062
659.33	10.39774
659.521	9.98624
659.712	11.22321
659.903	10.8594
660.094	10.29948
660.286	8.14833
660.477	15.65583
660.668	13.1675
660.859	11.15742
661.05	7.78478
661.241	13.34535
661.432	12.82825
661.623	11.02128
661.814	10.02026
662.006	7.76326
662.197	12.42941
662.388	14.89972
662.579	12.1601
662.77	14.97742
662.96	19.8365
663.151	13.89603
663.342	8.02396
663.533	13.33863
663.724	12.25852
663.915	16.83913
664.106	11.84099
664.297	16.96441
664.488	13.8563
664.678	11.1127
664.869	14.19094
665.06	15.2337
665.251	13.43159
665.442	13.42532
665.632	9.77469
665.823	17.01037
666.014	4.57749
666.204	14.98982
666.395	15.91669
666.586	20.66802
666.776	14.9701
666.967	17.14885
667.158	12.73513
667.348	16.52296
667.539	10.0819
667.729	15.23061
667.92	9.8154
668.111	14.9609
668.301	14.00705
668.492	12.82611
668.682	13.27744
668.873	12.27331
669.063	9.39901
669.253	12.76157
669.444	15.37667
669.634	11.84695
669.825	18.03794
670.015	15.76427
670.206	9.71852
670.396	18.42659
670.586	12.10321
670.777	14.11547
670.967	6.59722
671.157	11.45501
671.347	10.44537
671.538	17.95788
671.728	14.64867
671.918	18.76276
672.108	15.02107
672.299	12.85998
672.489	14.13425
672.679	11.59785
672.869	14.26893
673.059	19.66132
673.249	15.24084
673.44	9.75675
673.63	12.74163
673.82	16.70101
674.01	10.85873
674.2	15.33442
674.39	22.29624
674.58	16.58887
674.77	13.76841
674.96	13.52574
675.15	26.14459
675.34	17.99711
675.53	14.02994
675.72	13.17556
675.91	8.97466
676.099	20.28765
676.289	21.21743
676.479	16.33084
676.669	11.98447
676.859	15.40373
677.049	11.30622
677.238	13.5186
677.428	20.15981
677.618	15.71037
677.808	18.29062
677.997	15.69916
678.187	9.6983
678.377	13.32297
678.567	11.96241
678.756	11.65638
678.946	12.51605
679.136	9.87018
679.325	11.43123
679.515	10.27764
679.704	9.75086
679.894	15.30669
680.084	14.63446
680.273	16.65591
680.463	11.36975
680.652	10.94457
680.842	13.41679
681.031	16.76229
681.221	11.35041
681.41	15.23705
681.6	13.35917
681.789	16.29351
681.978	16.99895
682.168	15.13756
682.357	14.44476
682.547	15.82075
682.736	14.93541
682.925	18.01587
683.115	17.71384
683.304	18.40218
683.493	15.54224
683.682	15.8778
683.872	16.21818
684.061	18.56453
684.25	16.76909
684.439	21.62354
684.629	16.66508
684.818	27.31944
685.007	15.0901
685.196	13.39083
685.385	21.0241
685.574	16.03684
685.763	16.02259
685.952	16.83286
686.142	11.39143
686.331	20.06215
686.52	9.19648
686.709	21.28693
686.898	20.9952
687.087	17.19939
687.276	21.67981
687.465	19.8387
687.654	15.13702
687.842	22.27306
688.031	11.42997
688.22	21.37847
688.409	16.23854
688.598	16.27694
688.787	25.55891
688.976	15.74929
689.165	22.9581
689.353	14.44795
689.542	18.4901
689.731	19.26305
689.92	24.50219
690.108	19.5171
690.297	14.47607
690.486	16.70821
690.675	19.63781
690.863	23.06787
691.052	22.0556
691.241	17.44267
691.429	16.93898
691.618	22.35167
691.806	10.89226
691.995	14.7723
692.184	17.49738
692.372	14.83425
692.561	17.75226
692.749	16.72922
692.938	28.05344
693.126	20.61187
693.315	17.31167
693.503	20.34306
693.692	19.33978
693.88	22.0215
694.068	26.55496
694.257	17.59613
694.445	19.55544
694.634	8.80264
694.822	21.46364
695.01	22.76789
695.199	24.2715
695.387	23.69238
695.575	21.61981
695.763	17.47275
695.952	15.68761
696.14	11.75483
696.328	15.83591
696.516	18.1595
696.705	18.49833
696.893	19.0535
697.081	10.55914
697.269	20.6683
697.457	13.0643
697.645	12.637
697.833	19.84472
698.021	14.12336
698.21	16.17634
698.398	16.51728
698.586	12.6754
698.774	12.28367
698.962	15.75368
699.15	13.20538
699.338	11.30153
699.526	17.85884
699.714	13.97566
699.901	13.85685
700.089	19.89819
700.277	13.75489
700.465	15.49008
700.653	20.07174
700.841	18.43052
701.029	14.18933
701.217	21.49094
701.404	17.91056
701.592	23.85562
701.78	27.04303
701.968	17.67946
702.155	17.51428
702.343	11.17375
702.531	24.71219
702.718	19.3861
702.906	16.83141
703.094	14.76988
703.281	23.5541
703.469	18.90684
703.657	23.47395
703.844	33.40187
704.032	27.57418
704.219	15.88913
704.407	20.69608
704.595	24.52693
704.782	19.23152
704.97	16.2604
705.157	17.00465
705.345	26.46903
705.532	33.08739
705.719	22.58404
705.907	24.60924
706.094	18.96545
706.282	28.2184
706.469	18.33624
706.656	20.25591
706.844	19.27055
707.031	24.21983
707.218	21.57218
707.406	26.97479
707.593	23.49551
707.78	23.8202
707.968	19.79904
708.155	16.42605
708.342	23.02547
708.529	22.98098
708.716	21.15104
708.904	28.88455
709.091	24.47436
709.278	14.53724
709.465	28.85751
709.652	28.48394
709.839	27.61358
710.026	22.66163
710.213	13.45113
710.4	22.50144
710.587	24.87022
710.774	27.42869
710.961	26.24724
711.148	21.04064
711.335	27.15765
711.522	19.47756
711.709	23.72827
711.896	33.36388
712.083	26.04809
712.27	17.08821
712.457	21.84596
712.644	15.16868
712.831	32.6568
713.017	22.25345
713.204	25.19502
713.391	18.83021
713.578	27.6521
713.765	29.52642
713.951	24.63288
714.138	40.5729
714.325	25.26146
714.512	22.02634
714.698	18.75957
714.885	30.22579
715.072	23.90085
715.258	23.4437
715.445	19.53103
715.631	29.34712
715.818	10.23536
716.005	19.9621
716.191	26.27394
716.378	20.77873
716.564	28.47858
716.751	18.79599
716.937	20.1061
717.124	29.30681
717.31	19.24596
717.497	33.45787
717.683	20.09729
717.869	38.3412
718.056	20.61297
718.242	27.19077
718.429	23.62346
718.615	16.87285
718.801	25.44524
718.988	29.79978
719.174	26.43384
719.36	23.4822
719.547	31.22318
719.733	26.67761
719.919	25.64779
720.105	30.91141
720.291	23.7732
720.478	25.53902
720.664	24.05736
720.85	20.84984
721.036	42.84494
721.222	35.24567
721.408	24.7124
721.595	36.74337
721.781	35.91078
721.967	33.25333
722.153	36.42673
722.339	28.91323
722.525	25.96301
722.711	20.02981
722.897	17.1482
723.083	23.32529
723.269	31.00659
723.455	42.97591
723.641	46.63604
723.827	27.20697
724.012	29.60989
724.198	24.20383
724.384	34.96261
724.57	28.18428
724.756	18.25736
724.942	13.67794
725.127	33.14418
725.313	35.60153
725.499	33.7012
725.685	39.67666
725.87	29.35313
726.056	20.8136
726.242	36.37603
726.428	15.2452
726.613	32.58992
726.799	24.5274
726.985	19.57799
727.17	16.69236
727.356	39.40428
727.541	20.93783
727.727	26.73582
727.913	30.71274
728.098	23.34955
728.284	30.68196
728.469	18.97347
728.655	20.36224
728.84	32.69234
729.026	30.60527
729.211	32.56885
729.397	30.68655
729.582	31.88413
729.767	27.61475
729.953	27.25885
730.138	34.6201
730.323	12.51368
730.509	19.58469
730.694	37.88211
730.879	29.9881
731.065	27.23518
731.25	42.4111
731.435	31.7097
731.621	17.20996
731.806	24.44166
731.991	29.23475
732.176	16.99486
732.361	37.33473
732.547	31.39448
732.732	15.7644
732.917	44.55463
733.102	18.7134
733.287	21.90867
733.472	28.08342
733.657	27.70055
733.842	17.98532
734.027	23.95964
734.212	25.0044
734.397	21.22579
734.582	26.9406
734.767	34.85579
734.952	37.33607
735.137	9.98788
735.322	38.76052
735.507	29.38822
735.692	28.01324
735.877	44.41145
736.062	42.85061
736.247	32.4322
736.431	26.31705
736.616	36.4032
736.801	30.61795
736.986	28.70099
737.171	26.18406
737.355	17.05878
737.54	38.78501
737.725	26.81216
737.909	50.6884
738.094	24.2783
738.279	35.0093
738.463	25.66727
738.648	33.30153
738.833	33.48824
739.017	46.08116
739.202	27.39438
739.386	27.64944
739.571	21.08137
739.756	37.23709
739.94	29.86093
740.125	37.53455
740.309	23.85343
740.494	34.77617
740.678	29.63686
740.863	34.08219
741.047	31.48141
741.231	40.73481
741.416	23.23603
741.6	41.37837
741.785	21.51104
741.969	37.46563
742.153	41.63787
742.338	13.86488
742.522	30.26807
742.706	37.28705
742.89	19.49856
743.075	33.55955
743.259	40.37077
743.443	38.6165
743.627	41.62929
743.812	52.66366
743.996	14.95209
744.18	29.28953
744.364	25.06652
744.548	51.72984
744.732	31.93858
744.916	37.55782
745.1	36.00754
745.285	28.30088
745.469	34.62656
745.653	43.91272
745.837	18.31311
746.021	51.59346
746.205	40.47276
746.389	33.34438
746.573	27.78944
746.757	45.58053
746.94	27.63475
747.124	42.37352
747.308	21.75982
747.492	41.81166
747.676	27.46646
747.86	54.20061
748.044	27.57445
748.227	16.88342
748.411	69.23192
748.595	33.04838
748.779	21.50015
748.963	35.72822
749.146	32.9887
749.33	24.79482
749.514	23.4776
749.697	41.61383
749.881	26.24517
750.065	19.36923
750.248	32.77148
750.432	54.39889
750.616	31.59033
750.799	19.44537
750.983	53.65978
751.166	59.01897
751.35	17.25801
751.533	34.95657
751.717	46.57729
751.9	45.67787
752.084	26.5202
752.267	21.68043
752.451	26.34529
752.634	32.98424
752.818	37.04161
753.001	40.41998
753.184	43.98323
753.368	36.35307
753.551	3.96699
753.734	25.94189
753.918	55.90799
754.101	24.26819
754.284	35.84146
754.467	29.50394
754.651	26.70384
754.834	27.96666
755.017	43.61347
755.2	44.18359
755.384	23.40557
755.567	42.28113
755.75	44.09236
755.933	27.89275
756.116	34.19285
756.299	26.56449
756.482	22.13625
756.665	38.89053
756.848	37.14257
757.032	38.09251
757.215	16.24808
757.398	24.73819
757.581	24.60005
757.764	58.97718
757.947	32.55719
758.129	45.7901
758.312	5.0278
758.495	33.59729
758.678	30.11497
758.861	30.47413
759.044	55.00086
759.227	26.86043
759.41	25.21245
759.592	41.75481
759.775	30.63483
759.958	42.45229
760.141	19.93649
760.324	54.82556
760.506	49.46248
760.689	42.42742
760.872	61.25972
761.054	42.25502
761.237	31.5017
761.42	39.06724
761.602	42.01137
761.785	35.69334
761.968	45.62431
762.15	52.76841
762.333	31.18571
762.515	35.77781
762.698	28.42453
762.88	39.64687
763.063	34.23122
763.245	40.62315
763.428	22.05759
763.61	27.51285
763.793	20.64732
763.975	34.74252
764.158	27.99843
764.34	26.52788
764.522	23.42016
764.705	29.30275
764.887	45.1746
765.069	18.35825
765.252	40.2864
765.434	41.16722
765.616	34.03984
765.799	24.49448
765.981	41.39219
766.163	24.70715
766.345	43.10854
766.528	26.92522
766.71	9.58801
766.892	33.20464
767.074	47.8367
767.256	31.14254
767.438	52.25148
767.62	37.82413
767.802	60.04623
767.985	40.14644
768.167	59.11956
768.349	31.60311
768.531	43.14827
768.713	38.93934
768.895	46.96498
769.077	39.1296
769.259	71.1312
769.441	98.3445
769.623	48.23989
769.804	57.74519
769.986	56.31464
770.168	72.6764
770.35	80.66086
770.532	63.88532
770.714	64.8049
770.896	68.2798
771.077	25.64979
771.259	73.0123
771.441	55.87799
771.623	75.50929
771.804	97.8395
771.986	21.17213
772.168	44.78352
772.35	73.08909
772.531	92.61594
772.713	58.89546
772.894	81.33986
773.076	52.09344
773.258	40.98215
773.439	81.28535
773.621	86.51035
773.802	34.59393
773.984	53.083
774.166	59.41389
774.347	90.0286
774.529	71.60846
774.71	16.49429
774.891	48.87909
775.073	46.87814
775.254	89.85718
775.436	43.947
775.617	95.63265
775.799	47.62772
775.98	86.84936
776.161	90.11821
776.343	90.97736
776.524	56.58553
776.705	46.02542
776.886	24.96396
777.068	63.80163
777.249	112.91578
777.43	99.56068
777.611	33.46747
777.793	56.50236
777.974	88.83584
778.155	51.23449
778.336	43.3515
778.517	98.65984
778.698	41.75587
778.879	21.81475
779.061	9.49653
779.242	65.69634
779.423	65.43244
779.604	46.24562
779.785	49.21574
779.966	62.20667
780.147	80.23251
780.328	80.29699
780.509	108.65569
780.69	82.37925
780.871	45.84351
781.051	26.06503
781.232	60.05939
781.413	62.30176
781.594	48.52297
781.775	48.68061
781.956	43.85248
782.137	25.79359
782.317	40.39446
782.498	65.10586
782.679	66.16094
782.86	59.79548
783.04	40.30645
783.221	67.59038
783.402	101.05579
783.583	59.65042
783.763	78.79902
783.944	50.45101
784.124	27.77649
784.305	92.10344
784.486	70.51808
784.666	53.94818
784.847	22.28505
785.027	120.56996
785.208	40.43451
785.388	42.61933
785.569	44.47465
785.749	50.60792
785.93	44.78961
786.11	31.0302
786.291	66.14444
786.471	62.74085
786.652	71.97366
786.832	51.57037
787.012	65.34922
787.193	34.37608
787.373	54.92367
787.553	51.09019
787.734	62.2375
787.914	47.95636
788.094	70.31947
788.275	63.6412
788.455	48.95609
788.635	30.09496
788.815	59.99571
788.995	35.04297
789.176	31.69022
789.356	42.3253
789.536	51.61441
789.716	64.88062
789.896	37.97209
790.076	47.21825
790.256	62.29898
790.436	12.88767
790.616	37.57963
790.796	61.41946
790.976	49.47924
791.156	42.51909
791.336	69.65442
791.516	62.42774
791.696	49.15062
791.876	26.89196
792.056	61.57687
792.236	79.77146
792.416	74.59939
792.596	68.59863
792.776	63.32462
792.956	68.53308
793.135	94.63847
793.315	30.6671
793.495	80.07733
793.675	69.60052
793.854	75.49829
794.034	76.44739
794.214	34.91377
794.394	75.62283
794.573	77.55313
794.753	57.39505
794.933	42.62083
795.112	59.5445
795.292	73.20269
795.472	92.16933
795.651	32.36572
795.831	57.20662
796.01	47.47751
796.19	47.7648
796.369	53.2917
796.549	67.0724
796.728	51.07903
796.908	34.72872
797.087	33.39112
797.267	49.23684
797.446	34.803
797.626	65.61462
797.805	62.37069
797.984	42.69613
798.164	70.56746
798.343	40.41936
798.522	60.49326
798.702	56.41864
798.881	32.30389
799.06	48.16771
799.239	17.07086
799.419	40.0665
799.598	89.15516
799.777	66.46177
799.956	78.36605
800.136	50.17871
800.315	46.87365
800.494	62.60315
800.673	77.08182
800.852	70.85701
801.031	80.23658
801.21	67.58666
801.389	44.10923
801.568	64.43563
801.747	94.74453
801.926	53.09487
802.105	94.52811
802.284	52.33115
802.463	86.5367
802.642	65.39044
802.821	65.17386
803	83.54353
803.179	73.78094
803.358	79.44635
803.537	42.10236
803.716	64.49622
803.895	42.24982
804.073	59.1458
804.252	45.75073
804.431	66.87656
804.61	54.36266
804.789	83.67461
804.967	46.79379
805.146	43.33195
805.325	103.29756
805.503	68.54558
805.682	30.47033
805.861	124.94475
806.039	91.45673
806.218	44.09044
806.397	63.86777
806.575	60.68577
806.754	63.84919
806.932	40.33041
807.111	84.22851
807.289	82.82324
807.468	62.664
807.646	83.92846
807.825	61.88166
808.003	64.08977
808.182	80.78196
808.36	58.22914
808.539	42.50504
808.717	92.2042
808.895	41.62474
809.074	61.52192
809.252	53.30707
809.43	87.98419
809.609	91.6138
809.787	109.57752
809.965	57.3104
810.144	67.68366
810.322	49.74306
810.5	73.18714
810.678	62.66445
810.856	105.11448
811.035	88.46768
811.213	90.72679
811.391	88.71048
811.569	66.58697
811.747	140.83936
811.925	95.42189
812.103	44.71241
812.281	56.34958
812.459	118.13148
812.637	109.40222
812.816	88.75296
812.994	113.67926
813.171	95.08231
813.349	84.84844
813.527	105.53936
813.705	96.39484
813.883	119.25889
814.061	97.89465
814.239	117.33249
814.417	131.50712
814.595	90.50296
814.773	77.237
814.95	73.36739
815.128	76.07505
815.306	72.04454
815.484	65.47419
815.662	49.81381
815.839	37.63177
816.017	54.88291
816.195	93.99726
816.372	61.22883
816.55	89.78594
816.728	106.70111
816.905	62.38704
817.083	97.32456
817.261	72.14025
817.438	139.00802
817.616	120.41741
817.793	53.65844
817.971	84.15427
818.148	82.80584
818.326	112.9324
818.503	71.42088
818.681	101.50478
818.858	54.15199
819.036	66.36119
819.213	69.44802
819.391	54.32705
819.568	49.6085
819.745	45.21908
819.923	79.3505
820.1	53.60803
820.277	46.36923
820.455	53.68102
820.632	53.50445
820.809	59.74558
820.986	36.6363
821.164	29.01331
821.341	26.59197
821.518	36.51294
821.695	27.14722
821.872	26.46789
822.05	21.21117
822.227	17.42711
822.404	18.98357
822.581	21.58581
822.758	18.71653
822.935	18.34273
823.112	21.46142
823.289	17.59309
823.466	21.81555
823.643	19.59825
823.82	24.02703
823.997	21.15753
824.174	25.09254
824.351	33.04185
824.528	30.63621
824.705	26.73157
824.882	29.50976
825.059	41.01465
825.236	28.90989
825.412	27.79453
825.589	36.58471
825.766	55.26793
825.943	31.64373
826.12	38.32403
826.296	24.69707
826.473	34.53258
826.65	34.34931
826.827	43.21823
827.003	27.23763
827.18	32.51147
827.357	36.16533
827.533	30.04916
827.71	16.76182
827.887	26.6889
828.063	31.87727
828.24	26.95013
828.416	36.76341
828.593	30.61941
828.769	45.88444
828.946	46.3919
829.122	48.35204
829.299	49.44181
829.475	22.56961
829.652	47.87121
829.828	78.74999
830.005	49.00294
830.181	66.23387
830.357	45.22544
830.534	71.08243
830.71	56.07959
830.886	72.34703
831.063	63.68262
831.239	86.19616
831.415	39.10432
831.592	103.45028
831.768	56.09974
831.944	47.65646
832.12	106.57868
832.296	94.61782
832.473	76.90412
832.649	46.72576
832.825	70.33428
833.001	41.01158
833.177	62.80762
833.353	54.32224
833.529	29.88545
833.705	47.40356
833.881	33.58187
834.058	31.6513
834.234	33.66533
834.41	33.36865
834.586	26.17741
834.761	30.43462
834.937	36.08225
835.113	38.33105
835.289	32.84014
835.465	39.15091
835.641	31.70766
835.817	38.442
835.993	73.46948
836.169	32.82408
836.344	57.56569
836.52	60.94216
836.696	71.17102
836.872	46.86727
837.048	148.00125
837.223	50.01803
837.399	115.92674
837.575	95.65451
837.75	82.28755
837.926	128.00916
838.102	200.51601
838.277	161.89567
838.453	217.43195
838.628	205.86013
838.804	56.28838
838.98	197.84993
839.155	98.10018
839.331	138.14724
839.506	98.40951
839.682	84.53166
839.857	105.05781
840.033	131.44478
840.208	52.97189
840.384	34.14071
840.559	66.14317
840.734	99.64619
840.91	147.21085
841.085	92.29809
841.26	92.35057
841.436	88.92219
841.611	76.93453
841.786	115.56588
841.962	156.22457
842.137	126.27358
842.312	49.66897
842.487	92.93805
842.663	85.27051
842.838	98.48444
843.013	301.03678
843.188	175.691
843.363	130.60804
843.538	300.61504
843.714	339.14774
843.889	322.69934
844.064	302.47539
844.239	233.19836
844.414	460.86872
844.589	226.14907
844.764	392.18027
844.939	388.69137
845.114	408.89835
845.289	426.92326
845.464	482.14735
845.639	379.45019
845.814	186.49509
845.989	312.40596
846.163	236.69113
846.338	338.62949
846.513	408.5603
846.688	256.68424
846.863	305.54246
847.038	208.7784
847.212	287.52015
847.387	301.18838
847.562	267.83697
847.737	445.70419
847.911	172.79689
848.086	179.37946
848.261	441.00078
848.435	270.89082
848.61	358.54592
848.785	198.36401
848.959	408.88339
849.134	468.17192
849.308	655.89898
849.483	323.81656
849.658	529.40271
849.832	256.9962
850.007	224.02763
850.181	684.47765
850.356	282.93984
850.53	779.09776
850.705	319.14502
850.879	183.77961
851.053	297.10677
851.228	316.34509
851.402	469.2461
851.577	465.74169
851.751	605.78348
851.925	351.67443
852.099	143.64534
852.274	227.98195
852.448	317.21012
852.622	460.01142
852.797	305.50481
852.971	336.96513
853.145	415.3617
853.319	715.50178
853.493	644.0332
853.668	479.48067
853.842	755.58342
854.016	518.86521
854.19	674.96851
854.364	368.81047
854.538	332.86715
854.712	708.49619
854.886	381.71437
855.06	298.10303
855.234	80.02904
855.408	597.45391
855.582	384.63132
855.756	640.24233
855.93	543.82066
856.104	617.05529
856.278	547.27976
856.452	371.99695
856.626	417.64425
856.8	945.03677
856.973	402.00944
857.147	484.22855
857.321	468.73118
857.495	501.25129
857.669	332.87911
857.842	424.04149
858.016	608.23305
858.19	216.92334
858.364	756.76339
858.537	417.66719
858.711	489.93221
858.885	439.79296
859.058	254.0053
859.232	125.49043
859.405	128.36826
859.579	483.64837
859.753	537.29199
859.926	236.64524
860.1	192.14493
860.273	384.86127
860.447	469.24597
860.62	350.52873
860.794	602.14621
860.967	341.50063
861.141	479.77149
861.314	787.36822
861.487	460.53276
861.661	464.72139
861.834	519.58729
862.008	687.78653
862.181	429.32207
862.354	538.89874
862.528	517.52061
862.701	293.45373
862.874	192.63374
863.047	325.67762
863.221	271.59129
863.394	178.40817
863.567	401.28535
863.74	126.61915
863.913	516.27855
864.087	490.81909
864.26	440.56564
864.433	374.35681
864.606	595.25843
864.779	341.97908
864.952	178.25185
865.125	397.98266
865.298	295.38882
865.471	352.50601
865.644	746.6436
865.817	507.58693
865.99	506.89695
866.163	451.97032
866.336	234.42483
866.509	342.41673
866.682	565.04939
866.855	746.52672
867.028	187.24793
867.2	374.85662
867.373	85.97448
867.546	355.38765
867.719	692.56253
867.892	437.15482
868.064	260.90319
868.237	324.65717
868.41	382.41788
868.583	181.60635
868.755	224.82179
868.928	430.66006
869.101	809.39286
869.273	549.62206
869.446	525.15242
869.619	544.19499
869.791	362.41733
869.964	480.02572
870.136	792.0788
870.309	355.77204
870.481	405.73068
870.654	182.05904
870.826	318.24632
870.999	221.19986
871.171	419.71313
871.344	245.18413
871.516	307.16027
871.689	228.07143
871.861	359.66432
872.033	275.79842
872.206	254.96944
872.378	325.36694
872.55	350.46168
872.723	211.6722
872.895	296.2646
873.067	454.63346
873.24	358.80463
873.412	331.58953
873.584	360.50974
873.756	331.76724
873.928	450.76316
874.101	355.14365
874.273	415.95864
874.445	123.3932
874.617	222.93481
874.789	287.44274
874.961	299.50088
875.133	372.31295
875.305	359.90624
875.477	309.47227
875.649	158.19407
875.821	197.15248
875.993	596.6368
876.165	333.68758
876.337	363.80182
876.509	306.88721
876.681	390.85328
876.853	327.47195
877.025	352.98934
877.197	224.02187
877.369	155.99725
877.541	307.65271
877.712	87.35044
877.884	183.60425
878.056	335.80818
878.228	187.27953
878.4	384.97464
878.571	166.36382
878.743	113.30155
878.915	281.94157
879.086	124.1616
879.258	180.72922
879.43	172.33347
879.601	134.4558
879.773	132.19907
879.945	26.2555
880.116	50.52049
880.288	29.9097
880.459	33.79527
880.631	24.99597
880.802	30.90683
880.974	29.15305
881.145	18.86952
881.317	27.76578
881.488	21.48821
881.66	22.99055
881.831	20.86952
882.002	28.09948
882.174	21.85602
882.345	26.47352
882.517	13.46213
882.688	32.28001
882.859	24.82211
883.03	42.83455
883.202	39.74634
883.373	31.0466
883.544	31.18666
883.715	57.04524
883.887	47.78041
884.058	38.40779
884.229	56.66267
884.4	61.01706
884.571	73.5585
884.742	62.43454
884.914	63.89381
885.085	101.98892
885.256	140.53797
885.427	118.44311
885.598	148.70124
885.769	143.32356
885.94	144.08637
886.111	81.88805
886.282	177.6298
886.453	146.98697
886.624	103.68474
886.795	211.0529
886.966	182.02837
887.136	207.01563
887.307	166.93458
887.478	311.07142
887.649	268.42841
887.82	248.25861
887.991	200.35241
888.161	340.06363
888.332	349.68698
888.503	125.77677
888.674	356.03423
888.844	534.21917
889.015	335.36961
889.186	215.30666
889.356	458.7237
889.527	194.94127
889.698	666.74845
889.868	233.19091
890.039	406.07538
890.209	304.57687
890.38	379.98643
890.551	356.7998
890.721	404.27969
890.892	443.19328
891.062	383.41412
891.233	537.31524
891.403	467.05094
891.574	296.25774
891.744	250.1414
891.914	354.48311
892.085	383.2227
892.255	87.21467
892.425	431.20286
892.596	324.4262
892.766	407.12779
892.936	471.61583
893.107	399.28027
893.277	164.18622
893.447	163.9427
893.618	101.47187
893.788	194.25408
893.958	118.40058
894.128	93.23715
894.298	116.10371
894.468	149.67831
894.639	69.03805
894.809	27.67841
894.979	70.94098
895.149	85.04399
895.319	71.22736
895.489	105.08113
895.659	138.28716
895.829	86.1159
895.999	84.00005
896.169	71.42918
896.339	92.06835
896.509	186.76918
896.679	198.86618
896.849	208.98682
897.019	265.32184
897.189	239.90074
897.358	196.96397
897.528	344.75666
897.698	197.32112
897.868	295.29499
898.038	634.73738
898.208	602.46802
898.377	167.70243
898.547	931.17257
898.717	1407.69269
898.886	403.84235
899.056	632.75628
899.226	1462.8409
899.395	749.52791
899.565	1260.00089
899.735	803.87683
899.904	877.50877
900.074	1011.28659
900.244	293.13918
900.413	1287.56188
900.583	418.41304
900.752	1362.26541
900.922	1039.40626
901.091	262.41374
901.261	1777.3079
901.43	498.93206
901.599	2558.51461
901.769	1442.70442
901.938	1076.75419
902.108	1657.92893
902.277	786.22
902.446	358.76087
902.616	390.36678
902.785	553.46681
902.954	702.44411
903.124	510.36405
903.293	278.71654
903.462	131.78706
903.631	202.64639
903.801	152.52809
903.97	64.3935
904.139	114.11102
904.308	80.75748
904.477	69.34057
904.646	35.10391
904.816	60.69339
904.985	101.03141
905.154	140.38134
