Data from WindowProjectSample_Transmission__27__00027__038265145649581367.txt Node

Date: Mon May 05 17:29:03 EDT 2025
User: jessi
Spectrometer: SR400872
Trigger mode: 0
Integration Time (sec): 5.000010E-1
Scans to average: 20
Electric dark correction enabled: true
Nonlinearity correction enabled: true
Boxcar width: 0
XAxis mode: Wavelengths
Number of Pixels in Spectrum: 3648
>>>>>Begin Spectral Data<<<<<
184.909	20615.7481
185.132	-4991.71407
185.355	-2911.63127
185.578	-17895.59397
185.801	576.36631
186.024	10195.81858
186.247	-1985.64542
186.47	1216.46322
186.693	295.6586
186.916	338.82812
187.139	-3593.98758
187.362	3600.82539
187.585	4179.48699
187.808	3237.15868
188.031	20.71335
188.254	-49956.90512
188.476	-602.62198
188.699	6123.73515
188.922	657.33489
189.145	-14636.83819
189.368	-564.43095
189.591	-1455.91589
189.813	2971.64678
190.036	-47783.79504
190.259	-858.19623
190.482	-4438.39169
190.705	6841.34134
190.927	-2394.00067
191.15	12830.24947
191.373	3244.50356
191.595	-8486.00223
191.818	-4028.98603
192.041	-6926.06466
192.263	-3162.27103
192.486	-788.75028
192.709	-3761.63933
192.931	7787.61777
193.154	-27615.62402
193.377	-2697.29696
193.599	-2530.38333
193.822	-9324.05515
194.044	-1916.14034
194.267	1134.97731
194.489	265.51137
194.712	-42019.99898
194.934	-31216.65208
195.157	1045.53016
195.379	1532.79991
195.602	-6874.90164
195.824	-1320.18462
196.047	-8283.44558
196.269	2546.21313
196.492	-6324.09677
196.714	28772.92404
196.936	-8359.47599
197.159	-1085.74616
197.381	1147.91673
197.604	533.5651
197.826	11949.01403
198.048	-10341.75614
198.271	-2707.40096
198.493	7437.11525
198.715	2243.13693
198.938	-460.34421
199.16	6996.88913
199.382	-100351.9084
199.604	2562.56695
199.827	-1026.98757
200.049	-3065.8742
200.271	14092.81001
200.493	1115.64249
200.715	-37008.82228
200.938	-6083.68039
201.16	-4237.24825
201.382	21413.85718
201.604	2175.62617
201.826	2168.89111
202.048	-1823.04087
202.27	-1911.44506
202.492	-36715.61625
202.715	2730.33601
202.937	-4301.80179
203.159	-6240.97861
203.381	1352.91293
203.603	6692.716
203.825	6428.11007
204.047	2252.31037
204.269	-2839.11152
204.491	1997.55163
204.713	5656.64483
204.935	-491616.89624
205.156	1077.45382
205.378	-2917.54192
205.6	1576.37023
205.822	150990.94778
206.044	-913.60222
206.266	1575.0758
206.488	4391.06923
206.71	-4971.89417
206.932	1055.60918
207.153	11448.17834
207.375	-7039.43013
207.597	-36518.24494
207.819	-2807.15269
208.041	2394.25935
208.262	421.85419
208.484	692.99297
208.706	-744.52428
208.927	-831.15731
209.149	551.4947
209.371	-2749.06452
209.593	-152.30162
209.814	-779.70367
210.036	548.62293
210.258	-586.00378
210.479	1621.64919
210.701	1565.16513
210.922	3399.42256
211.144	-3806.34005
211.366	2017.07343
211.587	6257.02977
211.809	-7908.55777
212.03	2383.89006
212.252	356.6078
212.473	1980.70188
212.695	-5865.41259
212.916	2902.49767
213.138	-665.68031
213.359	3568.86063
213.581	4986.1316
213.802	-806.7612
214.024	1084.54196
214.245	1969.23908
214.466	1834.5657
214.688	-2991.88781
214.909	-1165.62522
215.131	-1687.71095
215.352	-2900.50909
215.573	14014.03719
215.795	5057.62051
216.016	5072.89994
216.237	800.09468
216.459	3284.05129
216.68	1729.93867
216.901	4789.04228
217.122	-2951.25825
217.344	-11247.97647
217.565	3352.06197
217.786	8597.95679
218.007	15885.34979
218.228	-706.61417
218.45	5618.21658
218.671	769.17604
218.892	36603.85222
219.113	1408.05721
219.334	-351.86799
219.555	9202.75977
219.776	3054.14223
219.997	21409.24957
220.219	2450.71992
220.44	-10513.53431
220.661	384.28659
220.882	1460.2639
221.103	-1028.46305
221.324	2314.36638
221.545	2230.61889
221.766	-9320.81752
221.987	870.04901
222.208	1660.69417
222.429	4189.18613
222.65	90.43296
222.87	18981.4319
223.091	685.89494
223.312	530.11419
223.533	1273.76863
223.754	1484.80144
223.975	1403.35457
224.196	1933.41423
224.417	1320.39883
224.637	583.85245
224.858	98.83557
225.079	1117.65389
225.3	658.78697
225.521	3683.08156
225.741	435.82399
225.962	507.5362
226.183	137.78931
226.404	652.4909
226.624	425.86546
226.845	597.4007
227.066	394.5927
227.286	246.98569
227.507	118.9143
227.728	111.88056
227.948	229.87481
228.169	69.65054
228.389	82.04809
228.61	45.2963
228.831	63.32787
229.051	1.90062
229.272	38.16068
229.492	54.52973
229.713	14.62769
229.933	35.40248
230.154	30.88061
230.374	51.9517
230.595	36.59804
230.815	22.36407
231.036	37.04917
231.256	-11.47649
231.477	65.20615
231.697	37.57625
231.917	37.24897
232.138	57.36791
232.358	111.00156
232.579	99.19744
232.799	19.25599
233.019	96.15739
233.24	111.26472
233.46	40.2288
233.68	60.96673
233.901	39.55613
234.121	25.00274
234.341	12.43791
234.561	-4.24017
234.782	21.08484
235.002	65.72798
235.222	-5.26707
235.442	63.77447
235.662	30.44023
235.883	59.64588
236.103	50.59226
236.323	38.45396
236.543	25.71448
236.763	37.79272
236.983	41.67543
237.203	39.36734
237.423	55.16214
237.643	84.02767
237.864	69.45531
238.084	17.98572
238.304	24.52251
238.524	44.58672
238.744	37.94974
238.964	71.5982
239.184	59.21311
239.404	62.86361
239.624	33.67866
239.843	58.02735
240.063	34.80916
240.283	21.41149
240.503	24.42102
240.723	25.30355
240.943	13.86976
241.163	18.73408
241.383	13.80534
241.603	6.5201
241.822	10.24502
242.042	5.8196
242.262	7.79341
242.482	9.35809
242.702	10.27846
242.921	2.49458
243.141	6.56544
243.361	6.0434
243.581	9.16958
243.8	7.26505
244.02	4.75873
244.24	9.22592
244.459	9.39408
244.679	16.83725
244.899	10.97678
245.118	12.26698
245.338	12.0184
245.558	13.05051
245.777	8.37687
245.997	10.64177
246.216	10.07183
246.436	6.30875
246.655	4.71398
246.875	3.13428
247.094	6.01399
247.314	1.97061
247.533	3.3073
247.753	4.17725
247.972	3.08981
248.192	1.19302
248.411	1.61651
248.631	3.37049
248.85	4.47897
249.07	3.46111
249.289	5.47029
249.508	4.94936
249.728	6.40895
249.947	6.69479
250.166	9.04021
250.386	4.61872
250.605	6.66581
250.824	10.86912
251.044	7.14602
251.263	27.93001
251.482	14.30285
251.701	11.04872
251.921	-0.45259
252.14	3.44071
252.359	3.85502
252.578	9.76659
252.798	3.50927
253.017	8.65532
253.236	4.13647
253.455	5.95169
253.674	9.68738
253.893	4.78985
254.112	7.3917
254.331	11.19617
254.551	8.47701
254.77	3.73927
254.989	12.93995
255.208	8.36622
255.427	14.93775
255.646	11.23866
255.865	21.36957
256.084	8.9569
256.303	9.9586
256.522	13.80544
256.741	2.75231
256.96	3.31073
257.179	8.34977
257.397	10.72938
257.616	5.87216
257.835	5.70601
258.054	14.31322
258.273	10.03667
258.492	10.66504
258.711	6.08726
258.93	3.13288
259.148	4.84531
259.367	4.19613
259.586	5.52548
259.805	2.21976
260.023	5.12418
260.242	3.77198
260.461	2.68162
260.68	1.2762
260.898	4.21429
261.117	1.33761
261.336	0.85032
261.554	3.20706
261.773	3.29893
261.992	0.79847
262.21	3.09534
262.429	3.33439
262.648	7.43859
262.866	8.02132
263.085	5.56249
263.303	5.00846
263.522	8.42395
263.74	8.49242
263.959	14.80823
264.178	6.84885
264.396	6.07613
264.615	4.55034
264.833	10.31299
265.051	8.54841
265.27	10.20945
265.488	10.92308
265.707	6.23266
265.925	10.99474
266.144	4.8316
266.362	5.57699
266.58	5.38544
266.799	4.95662
267.017	5.88738
267.235	5.17737
267.454	3.35156
267.672	1.73756
267.89	4.19634
268.109	4.33022
268.327	4.07413
268.545	1.01394
268.763	4.12514
268.982	1.20378
269.2	4.13134
269.418	2.93275
269.636	1.61617
269.854	4.62628
270.073	3.00196
270.291	1.83683
270.509	1.73009
270.727	4.378
270.945	7.01442
271.163	7.11923
271.381	1.40525
271.599	3.13889
271.817	5.06704
272.036	1.72768
272.254	3.05274
272.472	2.17021
272.69	2.59816
272.908	2.30865
273.126	4.28974
273.344	5.16825
273.562	1.63405
273.779	2.4144
273.997	3.74519
274.215	3.95383
274.433	2.71097
274.651	4.29861
274.869	4.59856
275.087	2.61312
275.305	4.21353
275.523	2.4775
275.74	2.90842
275.958	5.26534
276.176	8.01256
276.394	2.47971
276.612	3.09595
276.829	3.05532
277.047	2.63301
277.265	2.80427
277.483	3.5949
277.7	4.23301
277.918	3.45879
278.136	6.41673
278.353	2.76305
278.571	1.64386
278.789	4.03756
279.006	0.74626
279.224	2.6521
279.442	4.958
279.659	3.38153
279.877	2.23133
280.094	5.74726
280.312	0.90553
280.529	3.19467
280.747	0.94648
280.964	2.57446
281.182	5.86972
281.399	2.56421
281.617	3.85028
281.834	2.39806
282.052	1.8113
282.269	3.08887
282.487	2.29947
282.704	2.01095
282.921	2.15972
283.139	3.19162
283.356	3.76164
283.574	3.73215
283.791	1.82429
284.008	5.34119
284.226	2.74424
284.443	3.16789
284.66	4.37708
284.877	3.42503
285.095	2.02117
285.312	1.5721
285.529	0.84702
285.746	0.78466
285.964	1.98408
286.181	1.41396
286.398	1.84663
286.615	2.57518
286.832	2.55578
287.05	0.60448
287.267	1.72467
287.484	1.71119
287.701	2.52442
287.918	2.50301
288.135	2.61227
288.352	1.22809
288.569	1.39392
288.786	2.26915
289.003	1.95445
289.22	3.00734
289.437	1.47132
289.654	2.6492
289.871	3.05577
290.088	2.8111
290.305	2.22994
290.522	1.71687
290.739	1.84942
290.956	2.9992
291.173	3.33501
291.39	3.43995
291.607	2.32554
291.824	1.73393
292.04	1.15338
292.257	2.82463
292.474	3.02006
292.691	1.92854
292.908	0.90752
293.125	1.4326
293.341	1.18124
293.558	4.80208
293.775	1.73822
293.992	1.88045
294.208	0.828
294.425	1.30182
294.642	1.94574
294.858	2.45212
295.075	0.6721
295.292	1.95097
295.508	2.32132
295.725	3.9669
295.942	1.6771
296.158	1.26727
296.375	1.96681
296.591	1.49884
296.808	1.706
297.024	1.9448
297.241	2.33461
297.458	2.48251
297.674	0.27871
297.891	1.86573
298.107	1.63598
298.323	1.13631
298.54	3.24858
298.756	1.44163
298.973	0.77629
299.189	3.30398
299.406	1.44883
299.622	2.95471
299.838	2.96125
300.055	2.74575
300.271	0.8634
300.487	1.35372
300.704	1.54386
300.92	0.91281
301.136	4.378
301.353	2.97988
301.569	1.96553
301.785	2.47754
302.001	2.91281
302.218	2.40514
302.434	2.61704
302.65	1.06255
302.866	1.87855
303.083	4.21016
303.299	4.04786
303.515	2.3616
303.731	2.58818
303.947	1.07733
304.163	1.72135
304.379	2.40497
304.595	2.65799
304.812	1.6541
305.028	1.7227
305.244	2.11033
305.46	2.96326
305.676	3.03062
305.892	3.58273
306.108	2.87847
306.324	1.93493
306.54	4.18887
306.756	2.85948
306.972	2.86124
307.187	2.27563
307.403	3.66995
307.619	2.03547
307.835	3.44744
308.051	3.84492
308.267	1.59997
308.483	3.37016
308.699	2.84195
308.914	2.47046
309.13	2.31844
309.346	1.14742
309.562	1.579
309.778	1.22095
309.993	2.91384
310.209	2.54979
310.425	1.44167
310.641	2.28588
310.856	1.55155
311.072	1.49043
311.288	2.35588
311.503	2.47955
311.719	0.99499
311.935	0.8732
312.15	2.97388
312.366	2.57709
312.581	2.84372
312.797	2.56582
313.013	3.19861
313.228	1.91875
313.444	2.23313
313.659	1.92431
313.875	2.9846
314.09	2.35941
314.306	3.58527
314.521	3.26642
314.737	3.21289
314.952	2.58109
315.168	2.53987
315.383	2.90264
315.599	2.25152
315.814	2.21643
316.029	3.07242
316.245	1.56181
316.46	1.1128
316.675	3.58003
316.891	4.05089
317.106	5.09636
317.321	2.73174
317.537	3.19569
317.752	3.19167
317.967	3.29192
318.183	1.74795
318.398	2.303
318.613	3.36513
318.828	3.73035
319.043	3.39548
319.259	2.30904
319.474	2.76617
319.689	3.68134
319.904	1.083
320.119	3.30823
320.334	2.96585
320.549	2.30428
320.765	3.55357
320.98	2.7667
321.195	3.00584
321.41	2.54388
321.625	3.35081
321.84	4.17688
322.055	4.26126
322.27	2.02189
322.485	1.62294
322.7	2.99949
322.915	3.43313
323.13	1.91964
323.345	3.89504
323.56	3.71267
323.775	3.1758
323.989	2.82461
324.204	2.87527
324.419	3.53439
324.634	1.62821
324.849	2.62017
325.064	5.6437
325.279	3.5004
325.493	3.06764
325.708	3.43044
325.923	2.04379
326.138	2.13287
326.352	4.11677
326.567	3.46968
326.782	2.29655
326.997	2.16965
327.211	3.17622
327.426	2.88305
327.641	2.35338
327.855	1.40964
328.07	3.03699
328.285	4.2625
328.499	2.33048
328.714	3.01687
328.928	3.19761
329.143	2.55873
329.358	3.6487
329.572	3.51367
329.787	3.85024
330.001	4.86391
330.216	1.55949
330.43	4.49863
330.645	4.08219
330.859	3.52737
331.074	2.01963
331.288	2.96208
331.503	3.95904
331.717	1.76992
331.931	2.94867
332.146	2.89196
332.36	4.40854
332.575	2.99671
332.789	3.00723
333.003	2.99278
333.218	3.19296
333.432	2.23771
333.646	3.58264
333.86	4.15015
334.075	4.00119
334.289	2.23998
334.503	1.76654
334.717	3.14713
334.932	3.04819
335.146	3.82458
335.36	2.31804
335.574	3.27868
335.788	3.13716
336.003	3.60267
336.217	3.25168
336.431	3.22945
336.645	2.26704
336.859	1.63471
337.073	2.53246
337.287	2.90977
337.501	1.7603
337.715	3.06485
337.929	3.37081
338.143	1.73656
338.357	2.59046
338.571	2.16094
338.785	3.20345
338.999	2.3569
339.213	2.24241
339.427	1.47781
339.641	3.88556
339.855	2.41396
340.069	2.09157
340.283	3.36674
340.497	4.34055
340.711	3.07776
340.924	2.59194
341.138	1.84434
341.352	1.68699
341.566	2.79688
341.78	1.36331
341.993	2.40355
342.207	1.99364
342.421	2.98876
342.635	2.71334
342.848	2.35076
343.062	0.87658
343.276	2.05885
343.49	4.3077
343.703	2.11005
343.917	3.57677
344.131	3.54033
344.344	2.05969
344.558	2.30514
344.771	1.68669
344.985	4.01917
345.199	4.00333
345.412	2.90427
345.626	3.00178
345.839	1.2924
346.053	1.71508
346.266	1.8117
346.48	3.1686
346.693	2.94352
346.907	2.83947
347.12	1.75699
347.334	2.87012
347.547	2.91082
347.76	2.55301
347.974	3.57992
348.187	2.80837
348.401	2.34824
348.614	2.04615
348.827	2.24682
349.041	2.97393
349.254	1.27495
349.467	2.05371
349.681	1.69257
349.894	1.97034
350.107	3.56927
350.32	4.04428
350.534	1.46335
350.747	2.27869
350.96	1.79606
351.173	2.03083
351.386	2.30346
351.6	2.14748
351.813	2.21244
352.026	2.33883
352.239	1.58772
352.452	2.28539
352.665	3.43006
352.878	2.51619
353.092	4.10592
353.305	3.17229
353.518	2.74421
353.731	1.85402
353.944	3.37387
354.157	2.19337
354.37	1.89299
354.583	1.74048
354.796	1.32877
355.009	3.28685
355.222	2.86359
355.435	2.58249
355.647	3.25354
355.86	1.88126
356.073	2.54104
356.286	2.15263
356.499	3.06771
356.712	2.79167
356.925	2.94293
357.138	3.15263
357.35	1.8381
357.563	2.28107
357.776	2.40699
357.989	2.34397
358.201	2.81997
358.414	2.68278
358.627	3.48527
358.84	2.33002
359.052	1.55572
359.265	1.86297
359.478	3.23462
359.69	0.74913
359.903	2.99947
360.116	3.23431
360.328	1.27085
360.541	3.10415
360.753	1.80608
360.966	2.14159
361.179	2.26476
361.391	2.11558
361.604	1.78987
361.816	2.15018
362.029	2.06631
362.241	1.90583
362.454	2.11015
362.666	1.78335
362.879	2.66464
363.091	2.21654
363.304	1.95909
363.516	2.36025
363.728	1.71245
363.941	2.80197
364.153	2.29497
364.366	1.08522
364.578	1.69599
364.79	2.63971
365.003	2.48442
365.215	1.97374
365.427	2.81039
365.639	3.18233
365.852	2.61637
366.064	4.13431
366.276	2.31448
366.488	2.79683
366.701	2.10878
366.913	2.39636
367.125	2.3561
367.337	1.87175
367.549	2.15848
367.762	2.5814
367.974	2.55718
368.186	2.16045
368.398	3.17578
368.61	2.88682
368.822	3.05261
369.034	2.3885
369.246	3.09568
369.458	4.78142
369.67	1.90069
369.882	3.83985
370.094	1.26255
370.306	3.80584
370.518	2.29141
370.73	2.1694
370.942	1.99371
371.154	2.42737
371.366	2.2207
371.578	2.85652
371.79	2.17573
372.002	3.37067
372.214	4.08069
372.425	2.55627
372.637	3.62503
372.849	2.93863
373.061	1.27221
373.273	2.91753
373.484	2.89403
373.696	3.31289
373.908	1.28452
374.12	3.55066
374.331	2.94122
374.543	2.20098
374.755	1.98191
374.967	2.85535
375.178	3.31594
375.39	2.47354
375.602	2.76364
375.813	1.71041
376.025	2.07725
376.236	2.76222
376.448	3.00723
376.66	2.54862
376.871	2.50602
377.083	3.59744
377.294	3.79437
377.506	2.42921
377.717	3.78929
377.929	2.95514
378.14	2.4895
378.352	3.08381
378.563	3.09964
378.775	3.7287
378.986	2.15639
379.197	2.89527
379.409	2.41088
379.62	3.3584
379.832	3.29329
380.043	2.75556
380.254	3.0103
380.466	2.16405
380.677	4.95503
380.888	4.27172
381.1	4.59984
381.311	4.69758
381.522	3.07184
381.733	4.94883
381.945	3.0158
382.156	3.07397
382.367	2.69189
382.578	4.95408
382.789	4.95014
383.001	2.70572
383.212	4.22
383.423	4.21337
383.634	4.00428
383.845	3.67615
384.056	2.89285
384.267	3.28447
384.478	3.20342
384.69	2.53495
384.901	3.48599
385.112	3.50386
385.323	4.40996
385.534	3.55364
385.745	3.57805
385.956	3.54652
386.167	2.69579
386.378	3.7305
386.588	2.81786
386.799	2.91357
387.01	2.38034
387.221	3.90361
387.432	3.32453
387.643	4.61096
387.854	3.3079
388.065	3.29418
388.275	3.3783
388.486	3.22383
388.697	3.41275
388.908	3.15557
389.119	4.35127
389.329	4.44727
389.54	3.53405
389.751	3.83126
389.962	4.46131
390.172	3.74855
390.383	3.32526
390.594	3.23738
390.804	3.22431
391.015	3.25028
391.226	3.79223
391.436	4.08854
391.647	3.95498
391.858	4.05942
392.068	2.69107
392.279	3.10161
392.489	3.92911
392.7	4.4909
392.91	3.29489
393.121	3.32363
393.331	4.16955
393.542	4.53492
393.752	4.38254
393.963	4.17031
394.173	4.08609
394.384	4.25255
394.594	3.97681
394.804	3.30451
395.015	4.13563
395.225	4.30628
395.436	3.38458
395.646	4.31022
395.856	3.74481
396.067	3.16277
396.277	4.60507
396.487	4.40934
396.697	4.27852
396.908	4.47018
397.118	4.43402
397.328	4.26973
397.538	4.70416
397.749	3.65414
397.959	4.65795
398.169	4.5927
398.379	3.34421
398.589	4.56649
398.8	4.36761
399.01	4.28218
399.22	4.02788
399.43	5.66523
399.64	4.25988
399.85	4.76134
400.06	4.38222
400.27	3.84074
400.48	4.34839
400.69	5.32874
400.9	4.05744
401.11	3.87792
401.32	4.87435
401.53	4.25713
401.74	5.48617
401.95	4.88437
402.16	4.0348
402.37	4.66957
402.58	4.18253
402.79	4.99239
403	5.23291
403.209	4.13104
403.419	5.32779
403.629	4.23037
403.839	5.21862
404.049	5.1773
404.258	4.42646
404.468	4.37882
404.678	5.06068
404.888	5.43488
405.097	4.52175
405.307	4.73075
405.517	5.19227
405.727	5.06332
405.936	4.68322
406.146	5.0779
406.356	5.678
406.565	4.88166
406.775	4.62179
406.984	4.69866
407.194	6.06403
407.404	4.96922
407.613	5.37036
407.823	5.42742
408.032	5.67476
408.242	5.62582
408.451	4.73365
408.661	4.96302
408.87	6.10747
409.08	4.70707
409.289	5.3056
409.499	5.31355
409.708	5.28917
409.918	4.01974
410.127	5.46407
410.336	6.1191
410.546	5.68455
410.755	5.06858
410.964	5.14257
411.174	4.88773
411.383	5.53714
411.592	5.6442
411.802	4.82818
412.011	5.89342
412.22	5.25917
412.429	6.48119
412.639	6.33678
412.848	5.97301
413.057	6.25472
413.266	6.29115
413.475	5.56595
413.685	5.88776
413.894	6.11098
414.103	6.23225
414.312	6.06306
414.521	5.51402
414.73	5.8024
414.939	7.01296
415.148	6.08565
415.357	5.91142
415.566	5.63136
415.776	5.64368
415.985	5.75699
416.194	6.43651
416.403	7.07882
416.611	5.36702
416.82	5.78977
417.029	6.2171
417.238	5.76563
417.447	5.66201
417.656	6.10744
417.865	5.86447
418.074	6.20584
418.283	6.27421
418.492	6.87769
418.7	6.77707
418.909	7.54118
419.118	6.86276
419.327	7.16913
419.536	7.06666
419.744	6.98139
419.953	8.11042
420.162	8.28952
420.371	7.73284
420.579	8.09953
420.788	8.91409
420.997	9.03938
421.205	9.2848
421.414	9.115
421.623	9.22418
421.831	8.81669
422.04	9.34671
422.249	8.67482
422.457	9.0105
422.666	8.27027
422.874	9.10561
423.083	9.11786
423.291	9.18201
423.5	8.93687
423.708	9.35441
423.917	9.7787
424.125	9.34357
424.334	9.26726
424.542	10.71788
424.751	10.32193
424.959	9.96507
425.167	10.11445
425.376	9.93188
425.584	8.94118
425.793	8.9694
426.001	8.07177
426.209	8.27721
426.418	7.3692
426.626	7.16937
426.834	7.06661
427.042	7.41083
427.251	7.06704
427.459	7.81322
427.667	7.40854
427.875	6.70387
428.084	7.06781
428.292	8.00317
428.5	7.69315
428.708	6.77808
428.916	6.82857
429.124	7.38886
429.333	7.04524
429.541	7.10839
429.749	7.47015
429.957	7.36344
430.165	8.88622
430.373	6.60456
430.581	7.52973
430.789	8.21446
430.997	7.16001
431.205	6.95581
431.413	7.72181
431.621	7.29145
431.829	7.84913
432.037	7.33623
432.245	7.51245
432.453	7.86107
432.661	7.53415
432.869	8.62991
433.076	7.22827
433.284	7.6639
433.492	8.05162
433.7	8.38034
433.908	7.62718
434.116	7.85319
434.323	7.84056
434.531	7.79102
434.739	8.04173
434.947	8.30768
435.154	8.30451
435.362	7.85374
435.57	7.66519
435.778	7.46649
435.985	7.9626
436.193	7.55878
436.401	8.4198
436.608	7.70118
436.816	7.61866
437.023	8.57139
437.231	8.72358
437.439	8.00227
437.646	8.23186
437.854	8.04658
438.061	8.3158
438.269	7.87529
438.476	8.3198
438.684	8.03416
438.891	7.91376
439.099	7.68664
439.306	7.57563
439.514	7.51973
439.721	8.65526
439.929	8.21258
440.136	9.02289
440.343	9.09776
440.551	8.99057
440.758	10.50028
440.965	9.33133
441.173	9.11993
441.38	8.97569
441.587	8.88522
441.795	8.54845
442.002	8.43388
442.209	8.37597
442.416	8.50947
442.624	8.52358
442.831	8.3931
443.038	8.01829
443.245	7.63146
443.452	8.04399
443.66	8.43878
443.867	7.93446
444.074	7.96991
444.281	7.90945
444.488	8.09654
444.695	8.28649
444.902	8.00569
445.109	9.04385
445.316	8.84718
445.523	9.2621
445.73	9.33288
445.937	10.17599
446.144	10.55765
446.351	10.97264
446.558	10.15354
446.765	11.65272
446.972	11.1644
447.179	10.75997
447.386	11.35245
447.593	9.94109
447.8	10.70033
448.007	9.46061
448.214	9.10028
448.42	8.55031
448.627	8.99577
448.834	8.42506
449.041	8.34525
449.248	8.30267
449.454	8.71176
449.661	9.34672
449.868	8.20093
450.075	8.1982
450.281	7.3748
450.488	7.78043
450.695	7.83341
450.901	7.97474
451.108	8.01268
451.315	8.83652
451.521	8.24164
451.728	8.8535
451.935	7.9856
452.141	8.31704
452.348	8.30757
452.554	8.38618
452.761	8.17482
452.967	9.29799
453.174	8.51187
453.38	8.68387
453.587	7.83789
453.793	8.6213
454	8.96003
454.206	9.59527
454.413	9.03296
454.619	8.69083
454.825	8.10849
455.032	8.91153
455.238	8.8589
455.445	7.85762
455.651	8.58202
455.857	7.56902
456.064	8.29964
456.27	8.31324
456.476	8.28202
456.682	7.89459
456.889	8.76884
457.095	8.77578
457.301	9.79213
457.507	8.65196
457.714	8.56067
457.92	8.59906
458.126	8.16401
458.332	8.5277
458.538	8.38695
458.744	8.54114
458.951	8.4784
459.157	10.43602
459.363	9.75798
459.569	10.10834
459.775	10.77476
459.981	10.47917
460.187	10.91381
460.393	11.2328
460.599	11.39868
460.805	10.56227
461.011	9.79551
461.217	9.73381
461.423	9.42055
461.629	8.85022
461.835	9.19146
462.041	8.87398
462.247	9.63782
462.453	8.72652
462.658	8.7533
462.864	9.16474
463.07	8.78685
463.276	8.95188
463.482	8.8752
463.688	9.4638
463.893	8.43955
464.099	8.76005
464.305	9.55095
464.511	8.57004
464.716	8.65619
464.922	9.27478
465.128	8.31858
465.333	9.6721
465.539	9.21572
465.745	8.85947
465.95	8.84437
466.156	10.47941
466.362	9.64425
466.567	8.95561
466.773	8.67533
466.978	9.6377
467.184	8.46415
467.389	8.06325
467.595	9.22386
467.8	8.62132
468.006	9.82786
468.211	9.73148
468.417	8.46053
468.622	9.27131
468.828	9.48142
469.033	9.22708
469.239	10.50889
469.444	8.81641
469.649	9.53228
469.855	9.05943
470.06	9.00763
470.266	8.74197
470.471	9.37812
470.676	9.28774
470.881	8.239
471.087	9.83374
471.292	10.55269
471.497	8.51529
471.703	9.13823
471.908	8.82515
472.113	9.16803
472.318	9.56897
472.523	8.70035
472.729	9.31488
472.934	9.48186
473.139	8.99056
473.344	9.36294
473.549	9.80775
473.754	8.83561
473.959	10.68933
474.164	8.82617
474.369	9.11736
474.575	9.62276
474.78	9.16753
474.985	8.86135
475.19	8.27154
475.395	8.83703
475.6	9.20491
475.804	10.01235
476.009	9.27505
476.214	9.3175
476.419	9.14903
476.624	8.45729
476.829	8.79853
477.034	9.65669
477.239	8.96424
477.444	9.5254
477.648	9.62698
477.853	9.67966
478.058	9.2121
478.263	8.95898
478.468	8.7937
478.672	8.896
478.877	10.06316
479.082	10.20727
479.287	9.62884
479.491	9.43293
479.696	8.91885
479.901	9.70961
480.105	9.80945
480.31	9.068
480.515	9.41124
480.719	10.49618
480.924	9.16345
481.128	8.93827
481.333	9.55945
481.538	9.6001
481.742	9.81722
481.947	10.90302
482.151	11.73674
482.356	12.50283
482.56	14.60142
482.765	16.12818
482.969	18.95569
483.174	21.51655
483.378	25.05001
483.582	26.21973
483.787	28.4103
483.991	29.16656
484.196	29.92929
484.4	29.77394
484.604	30.20607
484.809	27.90845
485.013	26.28736
485.217	24.03947
485.422	21.50856
485.626	19.56447
485.83	18.20426
486.034	17.27778
486.239	17.49976
486.443	17.69345
486.647	18.03822
486.851	19.16884
487.055	20.54693
487.26	20.56863
487.464	21.61529
487.668	21.44958
487.872	22.14903
488.076	22.33599
488.28	21.64364
488.484	20.48242
488.688	19.96216
488.892	19.04426
489.096	17.79043
489.3	16.40616
489.504	15.27323
489.708	14.43521
489.912	14.03525
490.116	13.62162
490.32	13.10183
490.524	14.12505
490.728	14.96823
490.932	15.68297
491.136	16.72392
491.34	17.90796
491.544	18.51655
491.748	18.61081
491.951	18.76202
492.155	18.35786
492.359	17.94861
492.563	16.62693
492.767	15.65799
492.97	14.29101
493.174	12.82633
493.378	11.72599
493.582	10.36454
493.785	9.93464
493.989	9.99133
494.193	9.82245
494.396	9.63292
494.6	10.18912
494.804	9.77421
495.007	9.40172
495.211	9.54131
495.414	9.63386
495.618	9.86132
495.822	10.35496
496.025	9.79056
496.229	10.12611
496.432	9.45267
496.636	9.95168
496.839	9.72771
497.043	10.55118
497.246	10.00557
497.45	9.70974
497.653	9.99173
497.856	9.96763
498.06	9.53892
498.263	9.82439
498.467	9.71109
498.67	10.19467
498.873	10.04065
499.077	9.87717
499.28	9.74302
499.483	10.00231
499.686	10.19395
499.89	9.95879
500.093	10.36347
500.296	9.45563
500.499	10.61119
500.703	9.84144
500.906	9.94439
501.109	10.68513
501.312	9.89951
501.515	9.8052
501.719	10.08968
501.922	10.47772
502.125	9.98168
502.328	9.73474
502.531	9.34941
502.734	9.78619
502.937	9.08474
503.14	9.96484
503.343	9.55866
503.546	9.63813
503.749	9.57088
503.952	10.25638
504.155	9.51107
504.358	10.07095
504.561	9.98684
504.764	9.3184
504.967	9.98027
505.17	9.88089
505.373	10.64335
505.576	9.99961
505.778	10.30099
505.981	9.5406
506.184	10.52662
506.387	9.15054
506.59	10.89779
506.793	10.36799
506.995	10.24227
507.198	9.07457
507.401	10.24906
507.604	10.15212
507.806	9.4012
508.009	9.6218
508.212	10.32476
508.414	9.6818
508.617	9.77386
508.82	10.04782
509.022	10.75901
509.225	10.07846
509.427	9.35305
509.63	10.64407
509.833	10.0878
510.035	9.72739
510.238	9.37557
510.44	10.6128
510.643	9.26854
510.845	10.8958
511.048	10.20295
511.25	9.75433
511.453	9.95383
511.655	10.14615
511.858	9.88819
512.06	10.41885
512.262	10.05659
512.465	10.39045
512.667	9.80406
512.869	9.50852
513.072	10.23265
513.274	10.3718
513.476	10.27896
513.679	10.45009
513.881	9.60914
514.083	10.77126
514.286	9.69277
514.488	9.73569
514.69	9.45839
514.892	9.31342
515.094	10.37148
515.297	9.59856
515.499	10.04326
515.701	9.51357
515.903	10.83352
516.105	10.78132
516.307	10.30599
516.509	9.13818
516.711	9.5306
516.913	10.05156
517.116	9.97316
517.318	9.78665
517.52	10.58315
517.722	10.31487
517.924	9.51346
518.126	10.32483
518.328	9.97044
518.529	10.6547
518.731	11.5261
518.933	10.09006
519.135	10.39687
519.337	11.00148
519.539	10.4516
519.741	9.4619
519.943	10.00106
520.145	10.07399
520.346	10.44297
520.548	9.94697
520.75	10.25298
520.952	9.86968
521.153	10.20648
521.355	10.23951
521.557	9.62321
521.759	10.05575
521.96	10.03638
522.162	9.49517
522.364	10.56477
522.565	9.67814
522.767	10.31373
522.969	10.444
523.17	10.30158
523.372	10.21628
523.573	9.74754
523.775	9.87291
523.977	9.69106
524.178	10.92455
524.38	9.8148
524.581	10.32787
524.783	9.96063
524.984	10.36297
525.186	10.25008
525.387	10.77673
525.589	10.84969
525.79	10.97459
525.991	11.1583
526.193	11.64102
526.394	11.21978
526.596	12.02234
526.797	12.39875
526.998	11.96098
527.2	12.53147
527.401	14.4865
527.602	15.56486
527.803	17.91504
528.005	19.33475
528.206	20.843
528.407	22.16663
528.608	22.64793
528.81	23.07969
529.011	22.84879
529.212	23.76195
529.413	22.51397
529.614	21.27561
529.815	20.09292
530.017	18.39517
530.218	16.39242
530.419	14.58512
530.62	13.94124
530.821	13.1216
531.022	11.69772
531.223	12.21644
531.424	11.97508
531.625	11.9523
531.826	11.63686
532.027	12.17208
532.228	13.37554
532.429	13.61324
532.63	14.06134
532.831	15.11574
533.032	15.28005
533.233	16.2175
533.433	15.97004
533.634	16.37721
533.835	15.61858
534.036	15.05691
534.237	14.60877
534.438	13.64443
534.638	12.33316
534.839	11.71812
535.04	11.34383
535.241	10.51783
535.441	11.23928
535.642	10.87623
535.843	10.46659
536.043	10.71965
536.244	10.95517
536.445	11.28733
536.645	11.99325
536.846	11.7205
537.047	12.15757
537.247	11.09809
537.448	10.79665
537.648	10.57832
537.849	10.30232
538.049	10.26067
538.25	10.55261
538.451	10.44787
538.651	9.95119
538.851	10.51653
539.052	10.89192
539.252	10.66019
539.453	10.17795
539.653	10.36756
539.854	10.22897
540.054	10.35653
540.254	12.00355
540.455	13.23987
540.655	13.61366
540.855	15.38432
541.056	16.51742
541.256	16.67879
541.456	17.69314
541.657	17.52921
541.857	18.22223
542.057	16.96099
542.257	16.45232
542.458	16.56099
542.658	15.97192
542.858	14.0946
543.058	13.90742
543.258	13.1763
543.458	11.68486
543.659	11.15308
543.859	11.47239
544.059	11.13103
544.259	10.46125
544.459	11.07664
544.659	10.26922
544.859	10.66876
545.059	10.13888
545.259	10.82563
545.459	10.4928
545.659	10.87493
545.859	10.48691
546.059	10.62089
546.259	10.06914
546.459	9.86285
546.659	9.92196
546.859	10.88903
547.059	10.60903
547.258	10.74069
547.458	10.72931
547.658	9.97059
547.858	9.88932
548.058	10.58706
548.258	10.21518
548.457	9.87455
548.657	11.5608
548.857	10.16245
549.057	10.77865
549.256	10.62264
549.456	9.88056
549.656	9.28194
549.855	11.20183
550.055	9.87164
550.255	11.0759
550.454	10.51878
550.654	10.6604
550.853	11.01786
551.053	10.63157
551.253	10.36093
551.452	10.50411
551.652	9.41412
551.851	9.42658
552.051	10.05228
552.25	9.81597
552.45	9.76563
552.649	10.02859
552.849	9.83599
553.048	10.30315
553.248	10.67981
553.447	9.65114
553.646	10.65334
553.846	11.75468
554.045	10.91541
554.244	9.44615
554.444	11.04061
554.643	9.72294
554.842	10.98683
555.042	11.35506
555.241	9.95168
555.44	9.46119
555.64	10.37019
555.839	11.11313
556.038	10.43099
556.237	9.64188
556.436	10.24038
556.636	10.44373
556.835	9.6975
557.034	11.05115
557.233	10.05148
557.432	9.19325
557.631	10.7323
557.83	10.0242
558.029	9.78778
558.228	9.59001
558.427	9.4466
558.626	10.33746
558.825	9.50229
559.024	9.87426
559.223	11.12154
559.422	9.98901
559.621	10.33594
559.82	8.72122
560.019	10.04247
560.218	9.66173
560.417	8.59104
560.616	9.61925
560.815	12.13732
561.014	9.1417
561.212	11.11248
561.411	10.15285
561.61	9.33268
561.809	9.86557
562.008	11.16632
562.206	9.90161
562.405	10.50857
562.604	10.05482
562.803	10.13821
563.001	9.89506
563.2	9.16252
563.399	10.33897
563.597	9.38307
563.796	9.85445
563.995	9.2316
564.193	10.51783
564.392	9.88671
564.59	11.32597
564.789	8.87003
564.988	9.93117
565.186	10.29389
565.385	10.06982
565.583	9.87831
565.782	10.10085
565.98	9.99712
566.179	10.10365
566.377	9.72686
566.575	9.68227
566.774	11.06191
566.972	10.64145
567.171	11.49314
567.369	11.00424
567.567	10.45721
567.766	10.2091
567.964	8.92157
568.162	10.6021
568.361	11.02438
568.559	9.88249
568.757	10.30177
568.956	10.05839
569.154	9.9706
569.352	10.467
569.55	9.93862
569.748	10.12148
569.947	9.52957
570.145	9.49011
570.343	9.35787
570.541	10.98715
570.739	9.32
570.937	10.03703
571.135	10.35808
571.333	11.65445
571.532	11.46841
571.73	10.36194
571.928	10.88594
572.126	10.56549
572.324	9.86679
572.522	10.94077
572.72	11.99916
572.918	10.11017
573.116	10.47279
573.313	10.16992
573.511	10.28022
573.709	9.82781
573.907	10.8213
574.105	9.8749
574.303	9.16512
574.501	9.12702
574.699	10.62013
574.896	10.40935
575.094	10.6103
575.292	9.20998
575.49	10.75648
575.688	10.10026
575.885	11.13709
576.083	11.70585
576.281	10.56762
576.478	9.46325
576.676	10.41633
576.874	9.13533
577.071	9.96325
577.269	11.65476
577.467	10.0741
577.664	9.94275
577.862	10.7105
578.059	9.4753
578.257	10.67805
578.455	9.81375
578.652	10.0059
578.85	8.58385
579.047	10.13273
579.245	9.62593
579.442	10.04342
579.64	9.80045
579.837	8.71048
580.034	12.00377
580.232	9.74916
580.429	9.05878
580.627	10.3613
580.824	10.90456
581.021	10.40875
581.219	9.48308
581.416	9.50147
581.613	11.08849
581.811	10.83651
582.008	9.33439
582.205	10.84274
582.402	10.27682
582.6	11.66461
582.797	10.05189
582.994	10.38158
583.191	10.6705
583.388	9.83918
583.586	10.54694
583.783	10.84275
583.98	9.21247
584.177	10.15278
584.374	7.99687
584.571	9.85476
584.768	9.89773
584.965	9.61621
585.162	10.74707
585.359	11.35087
585.556	9.96961
585.753	10.25673
585.95	8.97537
586.147	9.29131
586.344	10.32758
586.541	9.6591
586.738	9.17439
586.935	9.73599
587.132	9.32939
587.329	10.75213
587.526	10.01139
587.722	13.98701
587.919	8.94593
588.116	10.37943
588.313	11.14511
588.51	11.71945
588.706	9.83154
588.903	10.6037
589.1	10.86251
589.297	12.39787
589.493	10.06759
589.69	10.6126
589.887	9.61641
590.083	9.27549
590.28	9.49707
590.477	10.92548
590.673	10.46762
590.87	11.141
591.067	9.71515
591.263	10.43641
591.46	10.32793
591.656	9.78562
591.853	11.43533
592.049	9.33767
592.246	9.65387
592.442	10.99171
592.639	11.05492
592.835	9.35469
593.032	10.34516
593.228	8.98953
593.425	8.9331
593.621	8.96488
593.817	10.28274
594.014	9.37285
594.21	10.27702
594.406	11.03329
594.603	10.36211
594.799	9.58091
594.995	8.38519
595.192	11.07326
595.388	9.77006
595.584	9.70969
595.78	9.22849
595.977	12.41819
596.173	11.53063
596.369	9.97422
596.565	9.4623
596.761	9.20412
596.957	11.10815
597.154	9.60993
597.35	9.83199
597.546	9.67179
597.742	10.68031
597.938	10.47157
598.134	9.63503
598.33	10.41385
598.526	11.0581
598.722	10.31522
598.918	11.71099
599.114	10.60319
599.31	8.99688
599.506	10.00135
599.702	9.4691
599.898	10.20257
600.094	10.71045
600.29	10.85042
600.485	10.86416
600.681	9.42146
600.877	11.47629
601.073	10.08876
601.269	11.8877
601.465	11.41936
601.66	9.26197
601.856	8.45905
602.052	12.12053
602.248	9.8364
602.443	8.65836
602.639	9.12369
602.835	9.59354
603.03	9.30173
603.226	11.00695
603.422	9.6105
603.617	10.1057
603.813	10.02842
604.009	9.86011
604.204	11.27529
604.4	9.21392
604.595	11.23325
604.791	9.49061
604.986	10.5251
605.182	9.55184
605.377	9.97328
605.573	9.98535
605.768	10.28663
605.964	10.7495
606.159	10.65314
606.355	10.94238
606.55	9.88285
606.746	11.10985
606.941	10.09377
607.136	11.77433
607.332	12.75902
607.527	9.17827
607.722	10.47496
607.918	9.89093
608.113	9.41098
608.308	11.03229
608.503	10.61103
608.699	10.68512
608.894	10.70038
609.089	9.65879
609.284	10.69593
609.479	10.08342
609.675	11.03641
609.87	10.16052
610.065	10.96259
610.26	11.1625
610.455	11.07886
610.65	10.30289
610.845	10.7317
611.04	11.15141
611.235	10.35657
611.43	10.31975
611.625	9.43346
611.82	11.82219
612.015	9.73373
612.21	12.13999
612.405	9.04511
612.6	12.06637
612.795	11.85305
612.99	11.00577
613.185	9.15397
613.38	9.78596
613.575	10.56073
613.77	13.40349
613.965	8.91623
614.159	9.89625
614.354	11.47602
614.549	11.26552
614.744	10.88511
614.938	9.0724
615.133	9.02009
615.328	11.87063
615.523	11.47931
615.717	13.39073
615.912	9.86951
616.107	10.58314
616.301	10.12834
616.496	9.62446
616.691	11.96261
616.885	11.13992
617.08	13.36204
617.274	11.46009
617.469	12.60134
617.664	11.06815
617.858	9.9098
618.053	10.67372
618.247	10.2644
618.442	8.14153
618.636	12.10273
618.831	9.74819
619.025	9.6908
619.219	13.73315
619.414	7.36684
619.608	9.93967
619.803	9.68716
619.997	12.72706
620.191	11.53098
620.386	10.75993
620.58	10.48022
620.774	8.57134
620.969	8.75609
621.163	10.54383
621.357	9.28898
621.551	10.1557
621.746	10.48637
621.94	9.98507
622.134	13.93128
622.328	13.01345
622.522	8.89209
622.716	11.42652
622.911	11.64693
623.105	11.39393
623.299	10.95675
623.493	13.98488
623.687	9.69007
623.881	10.01992
624.075	11.34818
624.269	11.81261
624.463	8.15139
624.657	8.69811
624.851	11.17824
625.045	11.32695
625.239	11.47559
625.433	9.91954
625.627	12.47073
625.821	9.80863
626.015	9.58898
626.209	10.63359
626.403	8.9757
626.596	10.89011
626.79	11.36687
626.984	9.27301
627.178	11.26097
627.372	11.09038
627.565	11.48232
627.759	9.37137
627.953	9.48349
628.147	10.94602
628.34	11.38179
628.534	13.02656
628.728	10.22422
628.921	11.64106
629.115	11.5786
629.309	11.62191
629.502	11.83757
629.696	10.7751
629.89	10.62015
630.083	10.73373
630.277	10.91388
630.47	12.68137
630.664	9.989
630.857	9.05407
631.051	11.55562
631.244	11.98013
631.438	11.66028
631.631	10.01062
631.825	12.49127
632.018	11.29217
632.212	12.94887
632.405	12.2356
632.598	9.787
632.792	10.83958
632.985	7.85963
633.178	10.31628
633.372	10.67985
633.565	10.51842
633.758	12.09503
633.952	9.7035
634.145	9.78656
634.338	10.29639
634.531	10.06265
634.724	9.74502
634.918	10.92148
635.111	10.33782
635.304	10.44916
635.497	13.70203
635.69	11.07774
635.883	12.12923
636.077	9.51399
636.27	11.29735
636.463	11.18668
636.656	11.11158
636.849	10.50938
637.042	11.74978
637.235	13.33031
637.428	12.09493
637.621	11.40203
637.814	12.93157
638.007	13.17271
638.2	12.64152
638.393	13.45168
638.586	9.09649
638.778	10.51845
638.971	10.86414
639.164	13.11776
639.357	11.39362
639.55	13.57979
639.743	12.1717
639.935	11.66919
640.128	14.30614
640.321	12.49816
640.514	11.4659
640.707	14.49875
640.899	12.17836
641.092	8.97561
641.285	26.84498
641.477	8.20248
641.67	14.79166
641.863	13.13538
642.055	11.61632
642.248	11.29395
642.441	10.90892
642.633	12.40404
642.826	12.89642
643.018	13.80919
643.211	14.30153
643.403	14.4148
643.596	15.00475
643.788	14.54416
643.981	10.82209
644.173	12.54382
644.366	10.95654
644.558	8.86138
644.751	13.04424
644.943	9.81378
645.135	13.9919
645.328	14.1333
645.52	12.86992
645.712	13.28098
645.905	16.32726
646.097	9.89083
646.289	12.09643
646.482	15.14465
646.674	10.34724
646.866	13.36854
647.058	12.61961
647.251	10.16267
647.443	10.96031
647.635	11.47953
647.827	10.25255
648.019	10.16935
648.211	11.41649
648.404	11.95309
648.596	14.36225
648.788	12.34203
648.98	12.2969
649.172	12.59526
649.364	12.64845
649.556	9.18336
649.748	15.87162
649.94	10.75816
650.132	13.01719
650.324	10.60788
650.516	10.59545
650.708	13.63101
650.9	9.89205
651.092	9.42884
651.284	9.8243
651.476	10.07163
651.667	12.96181
651.859	14.10245
652.051	11.8833
652.243	12.145
652.435	11.493
652.627	12.75709
652.818	12.83315
653.01	9.45583
653.202	10.75749
653.394	11.24773
653.585	12.38903
653.777	19.28652
653.969	14.73371
654.16	14.2924
654.352	10.51168
654.544	12.14136
654.735	14.15492
654.927	12.12883
655.118	14.4045
655.31	13.57383
655.502	14.42979
655.693	11.62923
655.885	12.9163
656.076	14.81894
656.268	12.59794
656.459	14.99315
656.651	14.80783
656.842	11.77992
657.034	11.09461
657.225	13.59048
657.416	14.77682
657.608	14.74227
657.799	12.50316
657.99	15.03677
658.182	11.42726
658.373	11.25824
658.564	14.49525
658.756	13.05891
658.947	12.19043
659.138	10.92915
659.33	11.50541
659.521	11.39039
659.712	12.34378
659.903	12.06703
660.094	11.47845
660.286	9.94529
660.477	15.33873
660.668	13.4404
660.859	12.24784
661.05	10.51652
661.241	13.2553
661.432	12.93463
661.623	12.13544
661.814	11.6757
662.006	10.22397
662.197	13.04963
662.388	14.75217
662.579	12.90455
662.77	16.15239
662.96	17.66217
663.151	14.54792
663.342	9.49665
663.533	14.0469
663.724	12.55277
663.915	16.46957
664.106	13.18389
664.297	16.35724
664.488	14.03658
664.678	11.65799
664.869	14.61071
665.06	14.7392
665.251	13.43485
665.442	14.27837
665.632	11.04343
665.823	16.88843
666.014	8.10844
666.204	14.48448
666.395	15.6592
666.586	17.98592
666.776	14.49721
666.967	16.80133
667.158	12.96413
667.348	16.02104
667.539	11.56429
667.729	15.08772
667.92	12.10329
668.111	15.47954
668.301	14.57855
668.492	12.93561
668.682	13.61227
668.873	13.24193
669.063	11.05015
669.253	14.21351
669.444	16.30142
669.634	13.39094
669.825	16.91012
670.015	15.87581
670.206	12.28175
670.396	17.44603
670.586	13.22901
670.777	14.71411
670.967	9.7609
671.157	13.12067
671.347	12.02691
671.538	16.87553
671.728	15.11953
671.918	17.61673
672.108	15.53661
672.299	13.11146
672.489	14.07777
672.679	12.4039
672.869	14.69699
673.059	18.32129
673.249	14.50053
673.44	11.81955
673.63	13.24592
673.82	15.98211
674.01	11.89143
674.2	14.69209
674.39	19.96201
674.58	15.28226
674.77	13.9721
674.96	13.60008
675.15	22.63102
675.34	16.4241
675.53	14.12882
675.72	13.13168
675.91	11.20026
676.099	18.39664
676.289	19.13059
676.479	16.57131
676.669	13.01036
676.859	15.24348
677.049	12.58696
677.238	14.48298
677.428	17.87601
677.618	15.24644
677.808	18.67121
677.997	15.15076
678.187	12.48137
678.377	14.4423
678.567	13.02867
678.756	13.28574
678.946	14.28575
679.136	11.50391
679.325	13.35589
679.515	12.60688
679.704	11.86186
679.894	16.2772
680.084	15.24617
680.273	17.23728
680.463	12.59219
680.652	12.52362
680.842	14.30451
681.031	16.1746
681.221	12.73576
681.41	15.77087
681.6	14.26275
681.789	15.74811
681.978	17.1583
682.168	15.4816
682.357	15.1721
682.547	15.87256
682.736	15.0043
682.925	17.07893
683.115	17.50091
683.304	16.33165
683.493	15.22543
683.682	16.00559
683.872	15.46377
684.061	17.6587
684.25	16.16735
684.439	20.73267
684.629	16.93118
684.818	23.43984
685.007	15.31979
685.196	14.63059
685.385	19.72131
685.574	16.50683
685.763	16.17749
685.952	15.89176
686.142	13.10701
686.331	18.91739
686.52	12.02974
686.709	20.40417
686.898	20.06733
687.087	17.54583
687.276	20.11995
687.465	18.94454
687.654	15.02955
687.842	19.54745
688.031	13.25831
688.22	19.40065
688.409	16.34532
688.598	15.90734
688.787	22.6601
688.976	15.8077
689.165	21.26692
689.353	15.55579
689.542	17.3468
689.731	18.6611
689.92	21.69177
690.108	18.0908
690.297	15.65695
690.486	17.1899
690.675	18.02323
690.863	20.9875
691.052	20.64893
691.241	17.09739
691.429	17.2437
691.618	20.40083
691.806	13.39407
691.995	16.23555
692.184	16.70735
692.372	15.94316
692.561	17.31452
692.749	17.48489
692.938	25.90085
693.126	18.58668
693.315	16.25011
693.503	19.39463
693.692	19.84162
693.88	19.75547
694.068	22.754
694.257	17.64995
694.445	18.57047
694.634	12.45503
694.822	19.34714
695.01	20.61901
695.199	23.76551
695.387	21.41207
695.575	20.34966
695.763	16.75462
695.952	16.31197
696.14	13.62651
696.328	16.0672
696.516	17.59469
696.705	18.30698
696.893	17.8954
697.081	12.85294
697.269	19.94857
697.457	14.42617
697.645	14.04509
697.833	19.03784
698.021	14.82971
698.21	15.28073
698.398	16.18523
698.586	14.0445
698.774	13.60625
698.962	16.43374
699.15	14.06442
699.338	12.7255
699.526	17.77929
699.714	15.22659
699.901	14.89643
700.089	18.55088
700.277	14.71196
700.465	16.46913
700.653	18.85694
700.841	17.74401
701.029	14.85542
701.217	20.99799
701.404	17.36006
701.592	21.11928
701.78	24.05726
701.968	16.77476
702.155	16.84965
702.343	13.63116
702.531	20.7984
702.718	18.75922
702.906	16.57099
703.094	16.47373
703.281	21.79181
703.469	17.30176
703.657	20.87919
703.844	28.49773
704.032	24.57016
704.219	17.21662
704.407	19.56531
704.595	23.49588
704.782	19.91817
704.97	18.6866
705.157	18.06802
705.345	25.19533
705.532	31.32681
705.719	22.52211
705.907	25.90829
706.094	22.52172
706.282	28.65961
706.469	22.55919
706.656	23.94558
706.844	22.27784
707.031	27.35379
707.218	25.59659
707.406	29.47576
707.593	26.98213
707.78	26.32364
707.968	25.45016
708.155	22.83474
708.342	27.97493
708.529	27.61815
708.716	26.55607
708.904	31.045
709.091	27.22184
709.278	22.1756
709.465	31.60717
709.652	30.12437
709.839	28.90523
710.026	25.22389
710.213	19.26138
710.4	24.87877
710.587	26.19486
710.774	27.27726
710.961	28.2387
711.148	24.60992
711.335	27.31687
711.522	23.88608
711.709	26.06934
711.896	31.92227
712.083	28.49032
712.27	22.37017
712.457	25.79499
712.644	20.15247
712.831	31.64519
713.017	25.77724
713.204	27.27002
713.391	21.76068
713.578	27.19246
713.765	29.10136
713.951	24.72223
714.138	34.56802
714.325	24.41562
714.512	22.70009
714.698	19.72075
714.885	27.58579
715.072	22.62685
715.258	22.12276
715.445	19.23176
715.631	25.72016
715.818	13.06552
716.005	18.67364
716.191	23.50682
716.378	20.03788
716.564	23.77863
716.751	18.00243
716.937	19.71766
717.124	24.65166
717.31	17.69697
717.497	28.88121
717.683	18.50352
717.869	29.58689
718.056	19.47036
718.242	23.32332
718.429	20.60318
718.615	17.14002
718.801	21.29357
718.988	25.49358
719.174	23.41327
719.36	20.46439
719.547	26.43345
719.733	22.53007
719.919	22.03191
720.105	23.40961
720.291	21.40722
720.478	22.53207
720.664	21.86311
720.85	18.98852
721.036	33.2899
721.222	29.1602
721.408	21.92279
721.595	29.03958
721.781	28.38778
721.967	26.79671
722.153	29.00101
722.339	24.81122
722.525	23.80585
722.711	17.97611
722.897	16.72014
723.083	21.26775
723.269	26.85935
723.455	35.13992
723.641	39.73737
723.827	22.95823
724.012	24.8304
724.198	22.6302
724.384	28.65823
724.57	24.11416
724.756	17.27437
724.942	15.6248
725.127	27.65234
725.313	28.42668
725.499	28.76738
725.685	31.3091
725.87	24.96504
726.056	19.14066
726.242	28.70004
726.428	16.48151
726.613	26.81233
726.799	21.5387
726.985	18.50812
727.17	16.60319
727.356	32.15873
727.541	19.74989
727.727	21.88875
727.913	26.94854
728.098	20.70646
728.284	26.32743
728.469	18.15109
728.655	19.86854
728.84	28.46904
729.026	26.14714
729.211	26.26201
729.397	24.92544
729.582	26.70094
729.767	22.94669
729.953	25.05571
730.138	29.67027
730.323	13.58576
730.509	18.84368
730.694	31.46002
730.879	26.27043
731.065	24.64796
731.25	33.79213
731.435	26.33625
731.621	17.51581
731.806	21.33403
731.991	24.75347
732.176	17.98585
732.361	31.08319
732.547	25.25852
732.732	17.31271
732.917	34.70162
733.102	18.49081
733.287	21.16606
733.472	23.63284
733.657	23.72714
733.842	17.34708
734.027	21.43733
734.212	22.2187
734.397	20.28975
734.582	24.02814
734.767	28.14537
734.952	30.14834
735.137	14.19552
735.322	30.17053
735.507	26.23836
735.692	24.60664
735.877	34.28879
736.062	33.01343
736.247	26.60455
736.431	23.77786
736.616	28.61753
736.801	25.37824
736.986	24.41385
737.171	19.11266
737.355	18.59442
737.54	31.23915
737.725	24.19606
737.909	38.46578
738.094	22.21899
738.279	28.3483
738.463	23.77369
738.648	28.12983
738.833	26.75697
739.017	35.74068
739.202	22.8364
739.386	23.43493
739.571	20.3232
739.756	28.85413
739.94	23.77855
740.125	27.89743
740.309	21.55992
740.494	28.26731
740.678	25.91556
740.863	26.8571
741.047	25.12234
741.231	32.22502
741.416	22.55337
741.6	33.21554
741.785	21.36376
741.969	28.95592
742.153	33.56473
742.338	15.19948
742.522	25.4649
742.706	29.3997
742.89	19.42973
743.075	25.29104
743.259	31.93154
743.443	31.38385
743.627	32.88579
743.812	37.26044
743.996	17.89773
744.18	24.68128
744.364	23.0214
744.548	38.75421
744.732	23.92097
744.916	30.66412
745.1	28.89645
745.285	24.53337
745.469	29.38193
745.653	34.46832
745.837	19.51034
746.021	39.54871
746.205	32.39977
746.389	26.6394
746.573	24.76874
746.757	33.77647
746.94	23.48088
747.124	32.74923
747.308	19.38836
747.492	32.67597
747.676	21.90204
747.86	41.92904
748.044	24.04649
748.227	17.37161
748.411	49.32862
748.595	26.46372
748.779	22.36188
748.963	29.09212
749.146	26.59398
749.33	22.16309
749.514	22.25554
749.697	33.00129
749.881	21.40303
750.065	20.31109
750.248	26.62449
750.432	40.23915
750.616	26.40824
750.799	20.45727
750.983	41.72759
751.166	40.94365
751.35	18.46552
751.533	29.24227
751.717	35.95154
751.9	34.73881
752.084	24.59314
752.267	21.64386
752.451	22.30068
752.634	26.97942
752.818	30.53275
753.001	32.21024
753.184	34.08274
753.368	28.81285
753.551	9.49568
753.734	22.20447
753.918	42.88906
754.101	22.73758
754.284	31.17646
754.467	24.02692
754.651	22.89206
754.834	21.7132
755.017	33.48608
755.2	34.48871
755.384	21.89506
755.567	30.65287
755.75	32.9538
755.933	24.66342
756.116	32.46757
756.299	24.36396
756.482	21.12979
756.665	31.4838
756.848	27.44561
757.032	28.78008
757.215	19.39666
757.398	22.56602
757.581	21.67168
757.764	44.70295
757.947	26.814
758.129	32.46915
758.312	11.65615
758.495	25.2713
758.678	26.66331
758.861	25.10337
759.044	39.14092
759.227	20.92045
759.41	22.75164
759.592	30.83927
759.775	25.57707
759.958	32.64849
760.141	19.40286
760.324	43.17604
760.506	36.16997
760.689	31.9994
760.872	43.17036
761.054	29.96269
761.237	26.3096
761.42	29.40845
761.602	31.77978
761.785	29.93237
761.968	34.86883
762.15	39.14398
762.333	26.21186
762.515	30.34116
762.698	25.17053
762.88	33.38514
763.063	30.31452
763.245	34.39177
763.428	21.90318
763.61	24.88231
763.793	20.40538
763.975	29.50288
764.158	25.54488
764.34	23.71812
764.522	22.08049
764.705	26.00997
764.887	37.08867
765.069	18.1712
765.252	31.40946
765.434	31.67756
765.616	27.95322
765.799	22.58622
765.981	31.72969
766.163	22.8314
766.345	35.35457
766.528	23.42154
766.71	14.75468
766.892	28.57588
767.074	35.84377
767.256	25.60622
767.438	39.5967
767.62	29.40637
767.802	44.52568
767.985	33.29199
768.167	39.79052
768.349	25.60429
768.531	33.14043
768.713	29.26692
768.895	34.39953
769.077	31.41492
769.259	46.66942
769.441	64.08757
769.623	35.2287
769.804	39.91536
769.986	37.12361
770.168	45.65253
770.35	54.17707
770.532	42.32365
770.714	46.65004
770.896	44.17018
771.077	20.4161
771.259	48.1715
771.441	40.40273
771.623	50.12057
771.804	61.28341
771.986	23.07826
772.168	31.96254
772.35	45.97618
772.531	61.3373
772.713	39.85793
772.894	53.4789
773.076	37.96034
773.258	34.78696
773.439	54.51362
773.621	60.52245
773.802	27.6342
773.984	33.39241
774.166	42.92102
774.347	56.14874
774.529	51.8998
774.71	20.06768
774.891	37.969
775.073	33.4922
775.254	53.08057
775.436	33.1192
775.617	64.18972
775.799	34.55874
775.98	54.61304
776.161	59.90684
776.343	61.7772
776.524	38.80807
776.705	36.99823
776.886	23.12888
777.068	41.228
777.249	90.37492
777.43	63.11073
777.611	27.35971
777.793	36.14503
777.974	62.03785
778.155	34.47779
778.336	30.15643
778.517	69.78922
778.698	30.45984
778.879	20.58636
779.061	14.13874
779.242	45.7712
779.423	44.05865
779.604	34.57357
779.785	36.53958
779.966	43.52363
780.147	52.28334
780.328	52.91943
780.509	71.77358
780.69	51.7951
780.871	32.33484
781.051	25.11654
781.232	41.27139
781.413	41.46882
781.594	37.65368
781.775	35.95951
781.956	34.8651
782.137	19.72905
782.317	33.90573
782.498	41.21707
782.679	41.54094
782.86	41.59837
783.04	32.4868
783.221	43.17595
783.402	64.41612
783.583	41.80955
783.763	50.35994
783.944	33.66808
784.124	24.54068
784.305	63.06187
784.486	49.44299
784.666	39.74161
784.847	23.99422
785.027	83.69035
785.208	34.17939
785.388	31.97802
785.569	33.56528
785.749	38.48238
785.93	36.15809
786.11	24.10548
786.291	46.52579
786.471	43.27209
786.652	52.04664
786.832	37.96427
787.012	44.09639
787.193	28.4174
787.373	41.39951
787.553	35.97882
787.734	45.45455
787.914	36.12663
788.094	53.30029
788.275	43.52192
788.455	36.26426
788.635	26.97668
788.815	42.8123
788.995	30.30605
789.176	24.13498
789.356	32.75967
789.536	38.07104
789.716	45.43715
789.896	32.80497
790.076	34.63891
790.256	44.61095
790.436	17.57672
790.616	29.50203
790.796	43.22738
790.976	35.96929
791.156	31.2574
791.336	47.39621
791.516	44.25632
791.696	36.45466
791.876	25.66464
792.056	42.56892
792.236	51.65333
792.416	48.73088
792.596	45.94554
792.776	46.46892
792.956	48.84015
793.135	63.18327
793.315	29.48466
793.495	52.80241
793.675	48.4399
793.854	50.0755
794.034	52.45672
794.214	28.45611
794.394	49.23368
794.573	55.64805
794.753	43.37326
794.933	30.13104
795.112	43.37289
795.292	51.41884
795.472	62.89813
795.651	25.69553
795.831	39.90386
796.01	36.9597
796.19	37.9471
796.369	39.71303
796.549	46.74688
796.728	38.3543
796.908	25.58746
797.087	28.015
797.267	37.1256
797.446	27.48436
797.626	47.07121
797.805	44.57281
797.984	31.80939
798.164	48.96264
798.343	31.03693
798.522	43.2088
798.702	41.7367
798.881	26.72341
799.06	37.5062
799.239	20.90372
799.419	30.64371
799.598	61.88305
799.777	48.021
799.956	54.18238
800.136	36.04145
800.315	28.75564
800.494	43.94886
800.673	54.27317
800.852	47.7857
801.031	56.55161
801.21	47.73426
801.389	36.15884
801.568	41.39029
801.747	65.35022
801.926	42.1734
802.105	60.37217
802.284	36.8885
802.463	60.83061
802.642	45.95657
802.821	43.92004
803	59.92558
803.179	52.17609
803.358	54.21604
803.537	33.6078
803.716	41.09639
803.895	35.34334
804.073	39.59593
804.252	32.1496
804.431	46.24475
804.61	38.93252
804.789	51.58733
804.967	35.19481
805.146	34.93842
805.325	70.24562
805.503	45.93587
805.682	26.8537
805.861	85.07318
806.039	58.61601
806.218	35.53989
806.397	43.60896
806.575	40.51127
806.754	44.8608
806.932	31.72172
807.111	55.26565
807.289	52.67118
807.468	42.35802
807.646	53.85125
807.825	49.44837
808.003	44.98264
808.182	53.54601
808.36	42.95133
808.539	31.84795
808.717	61.32253
808.895	33.37828
809.074	46.75297
809.252	41.33661
809.43	49.60283
809.609	58.75512
809.787	64.428
809.965	39.37587
810.144	43.57365
810.322	41.4591
810.5	47.51927
810.678	38.92769
810.856	70.61814
811.035	55.68019
811.213	51.3474
811.391	61.12826
811.569	45.50438
811.747	92.4787
811.925	59.53824
812.103	36.37755
812.281	41.78374
812.459	67.79323
812.637	68.57767
812.816	53.22563
812.994	75.24706
813.171	60.47037
813.349	49.09427
813.527	57.41513
813.705	66.16833
813.883	81.0751
814.061	54.86474
814.239	67.40894
814.417	73.23816
814.595	51.36602
814.773	48.67219
814.95	44.894
815.128	52.55661
815.306	48.26184
815.484	41.60243
815.662	32.98125
815.839	30.64615
816.017	37.33831
816.195	58.42315
816.372	40.5619
816.55	54.98077
816.728	68.96301
816.905	42.58622
817.083	64.87654
817.261	43.82355
817.438	88.7945
817.616	67.04285
817.793	38.31075
817.971	56.2664
818.148	55.11021
818.326	61.35512
818.503	47.32064
818.681	69.64878
818.858	41.59564
819.036	44.52666
819.213	47.93388
819.391	37.24513
819.568	38.09327
819.745	33.59362
819.923	55.03123
820.1	41.59673
820.277	35.46148
820.455	40.81747
820.632	42.09728
820.809	45.3589
820.986	30.69599
821.164	27.11526
821.341	24.2895
821.518	35.65493
821.695	26.47469
821.872	24.72714
822.05	22.09264
822.227	19.08301
822.404	20.28075
822.581	22.58307
822.758	19.98153
822.935	20.23444
823.112	21.98891
823.289	19.45549
823.466	22.55763
823.643	21.41784
823.82	24.65911
823.997	22.54264
824.174	25.70903
824.351	32.25221
824.528	30.5597
824.705	28.67694
824.882	30.47837
825.059	37.39985
825.236	28.75171
825.412	29.63672
825.589	36.04187
825.766	47.49837
825.943	31.10729
826.12	35.87866
826.296	27.78165
826.473	33.79459
826.65	33.03015
826.827	37.57727
827.003	27.46405
827.18	29.72595
827.357	33.11551
827.533	28.28475
827.71	18.66823
827.887	26.1236
828.063	29.11166
828.24	25.27566
828.416	31.99087
828.593	27.4577
828.769	36.47083
828.946	37.46329
829.122	38.21607
829.299	37.93695
829.475	25.64309
829.652	37.78742
829.828	56.76385
830.005	39.36288
830.181	50.16798
830.357	39.84218
830.534	52.54578
830.71	41.60524
830.886	52.1543
831.063	49.67574
831.239	62.58828
831.415	33.94469
831.592	64.89876
831.768	41.69432
831.944	38.11064
832.12	67.94932
832.296	65.68128
832.473	54.96114
832.649	38.74237
832.825	55.26606
833.001	34.69067
833.177	47.12399
833.353	44.8313
833.529	28.29548
833.705	40.66374
833.881	27.81451
834.058	27.87983
834.234	29.9516
834.41	29.83155
834.586	24.22776
834.761	27.89205
834.937	30.85045
835.113	31.41884
835.289	28.12987
835.465	32.23777
835.641	29.54628
835.817	32.79621
835.993	50.79272
836.169	30.19585
836.344	44.24633
836.52	49.18437
836.696	43.78951
836.872	36.71671
837.048	93.34004
837.223	40.35925
837.399	71.42989
837.575	57.04683
837.75	53.1516
837.926	75.67166
838.102	105.45031
838.277	89.02788
838.453	114.88001
838.628	116.39937
838.804	49.05701
838.98	101.67006
839.155	56.37812
839.331	71.8942
839.506	52.9431
839.682	51.31314
839.857	74.1843
840.033	85.48546
840.208	42.0915
840.384	24.76798
840.559	45.85702
840.734	63.34547
840.91	81.56477
841.085	53.27293
841.26	50.92813
841.436	45.12409
841.611	47.85995
841.786	69.24849
841.962	88.61765
842.137	58.52838
842.312	40.08612
842.487	52.15511
842.663	45.40948
842.838	50.07026
843.013	155.86969
843.188	77.47148
843.363	82.57697
843.538	132.79371
843.714	131.21313
843.889	131.91375
844.064	148.00453
844.239	118.78298
844.414	130.43873
844.589	91.30898
844.764	157.99634
844.939	164.85699
845.114	176.42725
845.289	167.87547
845.464	226.06249
845.639	155.6634
845.814	80.55711
845.989	90.36966
846.163	116.71478
846.338	119.23362
846.513	168.29147
846.688	110.75389
846.863	107.55782
847.038	101.66853
847.212	115.45518
847.387	118.42885
847.562	117.66231
847.737	151.01439
847.911	60.66203
848.086	73.23586
848.261	249.88228
848.435	102.24564
848.61	156.43213
848.785	77.38307
848.959	162.97699
849.134	211.64117
849.308	225.54059
849.483	125.3765
849.658	189.43087
849.832	105.56906
850.007	92.76813
850.181	250.88229
850.356	100.87457
850.53	233.35206
850.705	78.37263
850.879	52.57737
851.053	109.66664
851.228	99.2612
851.402	128.82022
851.577	172.1172
851.751	182.47687
851.925	123.11886
852.099	62.4059
852.274	85.49927
852.448	116.02401
852.622	127.31669
852.797	117.33231
852.971	114.60264
853.145	126.09219
853.319	348.92139
853.493	171.33209
853.668	98.76185
853.842	221.37477
854.016	179.94472
854.19	209.35418
854.364	130.35645
854.538	136.94009
854.712	180.86604
854.886	116.89598
855.06	110.99668
855.234	46.11894
855.408	199.06631
855.582	167.1458
855.756	168.40909
855.93	213.84307
856.104	154.9062
856.278	170.01558
856.452	126.17024
856.626	166.31508
856.8	257.91192
856.973	148.99605
857.147	145.25545
857.321	146.65549
857.495	181.57136
857.669	120.62456
857.842	107.68379
858.016	181.15595
858.19	89.06787
858.364	286.49154
858.537	109.035
858.711	129.5131
858.885	121.06417
859.058	100.67355
859.232	62.12591
859.405	68.85683
859.579	169.10947
859.753	145.92219
859.926	99.05925
860.1	76.20485
860.273	125.05084
860.447	204.06357
860.62	115.0137
860.794	245.3155
860.967	140.22718
861.141	184.26245
861.314	258.68467
861.487	158.48535
861.661	202.65807
861.834	205.23361
862.008	175.59225
862.181	132.1627
862.354	139.00761
862.528	157.79606
862.701	102.23807
862.874	74.33514
863.047	118.59087
863.221	109.39403
863.394	57.88744
863.567	208.75634
863.74	56.40452
863.913	173.66239
864.087	139.89693
864.26	175.04469
864.433	123.0121
864.606	227.01417
864.779	132.27356
864.952	66.39174
865.125	107.05174
865.298	126.18385
865.471	127.96686
865.644	257.86582
865.817	209.96458
865.99	175.2556
866.163	193.64939
866.336	111.24845
866.509	126.07438
866.682	117.50106
866.855	192.99582
867.028	86.67516
867.2	163.18783
867.373	51.41286
867.546	141.89412
867.719	258.58326
867.892	166.72851
868.064	98.0604
868.237	153.48366
868.41	135.06322
868.583	83.37467
868.755	94.24434
868.928	125.68048
869.101	268.78765
869.273	194.31703
869.446	161.11395
869.619	190.32507
869.791	128.68159
869.964	189.6681
870.136	175.08103
870.309	141.1868
870.481	144.19582
870.654	72.16222
870.826	142.54631
870.999	119.5403
871.171	174.92039
871.344	112.67394
871.516	130.57316
871.689	94.54568
871.861	142.1186
872.033	96.11607
872.206	119.78916
872.378	179.70679
872.55	124.32625
872.723	79.8154
872.895	118.38422
873.067	186.78579
873.24	206.95635
873.412	114.94353
873.584	119.88221
873.756	113.49411
873.928	158.64524
874.101	153.87246
874.273	168.48053
874.445	63.18297
874.617	77.95399
874.789	144.9678
874.961	117.60789
875.133	165.03978
875.305	136.61456
875.477	91.68275
875.649	79.97455
875.821	93.52249
875.993	225.14553
876.165	85.97068
876.337	153.22813
876.509	117.10925
876.681	150.68132
876.853	146.04797
877.025	144.0775
877.197	99.28486
877.369	87.92869
877.541	175.2793
877.712	53.3937
877.884	90.92586
878.056	166.18674
878.228	89.39775
878.4	158.65758
878.571	89.40165
878.743	63.45342
878.915	145.55778
879.086	84.02788
879.258	108.89169
879.43	98.31107
879.601	89.29277
879.773	90.31183
879.945	29.17206
880.116	42.10176
880.288	30.17197
880.459	31.09784
880.631	25.44347
880.802	30.00881
880.974	28.25224
881.145	21.47446
881.317	27.73135
881.488	21.60899
881.66	24.78009
881.831	22.46383
882.002	29.79998
882.174	23.6007
882.345	28.78899
882.517	18.97051
882.688	32.14457
882.859	29.2914
883.03	42.11756
883.202	39.60107
883.373	37.33147
883.544	37.47276
883.715	58.4373
883.887	49.34192
884.058	45.64182
884.229	61.94796
884.4	61.59889
884.571	68.69619
884.742	62.5035
884.914	69.03234
885.085	90.96752
885.256	109.81393
885.427	93.24405
885.598	106.2487
885.769	110.07023
885.94	103.9959
886.111	78.27031
886.282	125.82909
886.453	106.90412
886.624	77.24172
886.795	121.66833
886.966	109.92795
887.136	132.64387
887.307	87.82267
887.478	161.98051
887.649	145.53959
887.82	153.06178
887.991	119.59386
888.161	168.03442
888.332	152.88568
888.503	85.16223
888.674	208.74074
888.844	216.01437
889.015	174.5345
889.186	85.9623
889.356	200.08027
889.527	82.86602
889.698	350.30975
889.868	117.77877
890.039	148.87365
890.209	134.01084
890.38	171.16465
890.551	149.33684
890.721	216.07785
890.892	176.44131
891.062	128.78417
891.233	150.18464
891.403	123.76799
891.574	95.92071
891.744	134.40237
891.914	167.55969
892.085	136.40241
892.255	50.24789
892.425	211.31911
892.596	170.66732
892.766	157.17868
892.936	212.91844
893.107	178.28708
893.277	99.11999
893.447	81.59527
893.618	58.99371
893.788	118.90625
893.958	67.22556
894.128	67.17525
894.298	76.72143
894.468	102.20043
894.639	47.14848
894.809	37.42959
894.979	55.44089
895.149	61.92092
895.319	53.74979
895.489	72.25087
895.659	84.61318
895.829	61.41826
895.999	64.25031
896.169	49.94913
896.339	60.29511
896.509	116.56312
896.679	135.73853
896.849	127.41912
897.019	177.00211
897.189	137.25507
897.358	122.86363
897.528	174.85575
897.698	71.45888
897.868	165.53498
898.038	276.33999
898.208	254.77753
898.377	98.7482
898.547	260.17128
898.717	421.5595
898.886	173.98632
899.056	259.05646
899.226	380.8464
899.395	238.19504
899.565	292.25304
899.735	192.72851
899.904	321.15281
900.074	280.54116
900.244	135.22857
900.413	491.9569
900.583	128.05477
900.752	187.12916
900.922	304.34044
901.091	44.43578
901.261	266.84949
901.43	259.06379
901.599	246.17291
901.769	529.69633
901.938	294.14657
902.108	285.93596
902.277	355.59015
902.446	114.81157
902.616	110.85629
902.785	176.82273
902.954	279.93532
903.124	196.99462
903.293	152.90108
903.462	86.59026
903.631	117.40289
903.801	88.35924
903.97	52.41464
904.139	81.39412
904.308	62.31994
904.477	52.84955
904.646	33.90603
904.816	49.90588
904.985	72.50235
905.154	101.35508
