Data from WindowProjectSample_Transmission__51__00051__09374739421342352.txt Node

Date: Mon May 05 18:10:31 EDT 2025
User: jessi
Spectrometer: SR400872
Trigger mode: 0
Integration Time (sec): 5.000010E-1
Scans to average: 20
Electric dark correction enabled: true
Nonlinearity correction enabled: true
Boxcar width: 0
XAxis mode: Wavelengths
Number of Pixels in Spectrum: 3648
>>>>>Begin Spectral Data<<<<<
184.909	21162.08425
185.132	-5104.6195
185.355	-2998.69186
185.578	-18316.25732
185.801	1540.54736
186.024	10176.94116
186.247	-1770.81096
186.47	1204.14487
186.693	252.38368
186.916	196.13405
187.139	-3638.64471
187.362	3657.50397
187.585	4065.1576
187.808	3518.87145
188.031	-0.91604
188.254	-52432.01234
188.476	-763.94698
188.699	5994.91798
188.922	488.44669
189.145	-14939.01487
189.368	-618.86714
189.591	-1383.70148
189.813	3096.6205
190.036	-48487.90616
190.259	-796.9835
190.482	-4326.54044
190.705	6986.67011
190.927	-2423.22458
191.15	12875.6894
191.373	3193.76601
191.595	-8869.18471
191.818	-4167.12812
192.041	-4837.96563
192.263	-3418.30565
192.486	-643.59868
192.709	-3993.38467
192.931	7911.86514
193.154	-27513.6324
193.377	-2830.24541
193.599	-2499.20217
193.822	-9165.58366
194.044	-1865.32484
194.267	1102.55438
194.489	278.79025
194.712	-42203.50909
194.934	-31841.88309
195.157	1186.9231
195.379	1345.24556
195.602	-7111.01507
195.824	-1314.38747
196.047	-8270.15062
196.269	2686.11249
196.492	-6449.28908
196.714	27986.90992
196.936	-8575.5576
197.159	-1107.13053
197.381	1017.3949
197.604	446.29722
197.826	11514.14346
198.048	-10708.73345
198.271	-2853.74296
198.493	7384.27625
198.715	2318.28168
198.938	-400.87551
199.16	6523.25347
199.382	-99974.59753
199.604	2601.29937
199.827	-1034.70975
200.049	-2941.61963
200.271	13837.24812
200.493	1169.05349
200.715	-38458.35412
200.938	-5998.93496
201.16	-4304.08573
201.382	20886.56375
201.604	2361.16091
201.826	2319.81722
202.048	-1780.55903
202.27	-1933.63664
202.492	-35542.70625
202.715	2960.62701
202.937	-4498.51421
203.159	-6279.19834
203.381	1537.16515
203.603	6347.13709
203.825	6284.65961
204.047	2185.74918
204.269	-2826.24226
204.491	2247.37843
204.713	5734.9036
204.935	-472926.89263
205.156	1049.42096
205.378	-2757.02539
205.6	1645.80906
205.822	151023.6393
206.044	-888.07453
206.266	1554.19219
206.488	4631.17967
206.71	-5228.24392
206.932	1090.49127
207.153	12061.08242
207.375	-6834.01663
207.597	-37904.24626
207.819	-2809.61752
208.041	2388.77949
208.262	523.52872
208.484	701.9879
208.706	-825.81542
208.927	-759.18546
209.149	554.6039
209.371	-2869.97838
209.593	-214.04118
209.814	-814.08309
210.036	487.97166
210.258	-578.65455
210.479	1830.66042
210.701	1640.53682
210.922	3327.62174
211.144	-3777.46307
211.366	2177.60736
211.587	6874.57734
211.809	-7767.35008
212.03	2329.86928
212.252	373.73639
212.473	1888.29088
212.695	-5770.65419
212.916	2858.44956
213.138	-588.85369
213.359	3639.1112
213.581	5184.80019
213.802	-794.83202
214.024	1125.00317
214.245	2201.78723
214.466	2744.67609
214.688	-3010.20975
214.909	-1139.22807
215.131	-1729.13904
215.352	-2941.00795
215.573	14546.62071
215.795	5052.47386
216.016	5383.10831
216.237	785.07012
216.459	3661.52796
216.68	1812.00346
216.901	4952.75598
217.122	-2876.44759
217.344	-11440.72562
217.565	3393.00763
217.786	8804.21257
218.007	15876.70463
218.228	-706.0253
218.45	5615.83975
218.671	774.75904
218.892	34465.02241
219.113	1493.28955
219.334	-258.57809
219.555	10223.49756
219.776	3056.15439
219.997	21546.08426
220.219	2610.8435
220.44	-10629.19528
220.661	450.73761
220.882	1531.76801
221.103	-979.49002
221.324	2290.94504
221.545	2183.92796
221.766	-9088.23905
221.987	912.29355
222.208	1569.20102
222.429	4323.67994
222.65	31.56313
222.87	18231.62968
223.091	667.10479
223.312	556.60205
223.533	1355.11705
223.754	1484.21235
223.975	1345.95253
224.196	1946.18321
224.417	1325.41614
224.637	583.29555
224.858	42.21726
225.079	1142.43562
225.3	665.73938
225.521	3763.17257
225.741	481.08173
225.962	502.79637
226.183	164.21964
226.404	673.42862
226.624	421.92171
226.845	573.31184
227.066	406.97385
227.286	240.87879
227.507	122.94354
227.728	114.51196
227.948	234.52594
228.169	73.03603
228.389	87.01752
228.61	47.70397
228.831	61.00423
229.051	1.87345
229.272	37.89749
229.492	57.17013
229.713	13.28809
229.933	36.2021
230.154	30.33645
230.374	52.04321
230.595	38.72059
230.815	21.60322
231.036	38.39906
231.256	-10.3743
231.477	67.21093
231.697	35.98715
231.917	36.46659
232.138	56.84287
232.358	104.79
232.579	99.39912
232.799	16.89924
233.019	102.68564
233.24	110.97744
233.46	38.32866
233.68	61.90058
233.901	42.73198
234.121	26.85142
234.341	14.14003
234.561	-3.85591
234.782	18.58314
235.002	66.32215
235.222	-4.56056
235.442	65.35841
235.662	32.0615
235.883	61.89915
236.103	52.71129
236.323	33.50657
236.543	29.27418
236.763	37.63196
236.983	41.81476
237.203	40.31151
237.423	62.85132
237.643	87.95353
237.864	71.62557
238.084	17.64129
238.304	26.91863
238.524	44.32735
238.744	39.93959
238.964	73.90529
239.184	59.87746
239.404	61.41472
239.624	33.59872
239.843	60.53239
240.063	34.15649
240.283	20.25659
240.503	23.21532
240.723	24.41744
240.943	15.02451
241.163	19.72992
241.383	13.63321
241.603	6.97148
241.822	9.92484
242.042	5.82189
242.262	8.60072
242.482	9.7129
242.702	10.44039
242.921	2.96005
243.141	6.38453
243.361	5.68949
243.581	9.28894
243.8	7.19803
244.02	4.97551
244.24	9.22897
244.459	8.73626
244.679	17.17931
244.899	10.9682
245.118	12.27167
245.338	11.38145
245.558	13.10523
245.777	8.12306
245.997	10.11838
246.216	10.07367
246.436	6.09143
246.655	4.65317
246.875	3.28142
247.094	6.20779
247.314	2.00297
247.533	3.46142
247.753	4.32985
247.972	3.39286
248.192	0.9925
248.411	1.91921
248.631	3.41202
248.85	4.5206
249.07	3.54114
249.289	5.72224
249.508	4.62471
249.728	7.44078
249.947	6.96983
250.166	8.70304
250.386	3.90579
250.605	6.87947
250.824	10.57567
251.044	6.79304
251.263	28.44018
251.482	14.1161
251.701	11.7881
251.921	-0.18768
252.14	3.12295
252.359	3.72948
252.578	9.71181
252.798	3.17097
253.017	8.76124
253.236	3.9422
253.455	6.07727
253.674	10.09563
253.893	4.75336
254.112	7.15897
254.331	10.45805
254.551	8.06229
254.77	3.38334
254.989	12.90686
255.208	10.01211
255.427	14.46766
255.646	11.41458
255.865	22.13648
256.084	7.85887
256.303	10.38591
256.522	13.43948
256.741	2.30891
256.96	3.24167
257.179	7.39889
257.397	11.01126
257.616	5.67053
257.835	5.6203
258.054	14.80014
258.273	10.30076
258.492	11.31712
258.711	6.48806
258.93	2.97204
259.148	4.62221
259.367	4.59869
259.586	5.42692
259.805	2.24393
260.023	5.26555
260.242	3.84901
260.461	2.65688
260.68	1.12859
260.898	4.46616
261.117	1.28851
261.336	0.88667
261.554	3.41677
261.773	3.41037
261.992	0.492
262.21	3.39557
262.429	3.52749
262.648	7.22841
262.866	8.2869
263.085	5.54603
263.303	4.80026
263.522	8.68483
263.74	8.46154
263.959	15.10141
264.178	7.18517
264.396	6.30521
264.615	4.62352
264.833	10.3087
265.051	8.9338
265.27	10.48889
265.488	10.85447
265.707	6.31152
265.925	10.84822
266.144	4.35991
266.362	5.37765
266.58	5.18976
266.799	5.17774
267.017	5.90865
267.235	5.15485
267.454	3.16967
267.672	1.72488
267.89	3.85876
268.109	4.10822
268.327	4.42247
268.545	1.07745
268.763	4.08218
268.982	1.12991
269.2	4.11209
269.418	3.03392
269.636	1.81853
269.854	4.55313
270.073	3.25542
270.291	1.75542
270.509	1.45628
270.727	4.43667
270.945	7.16223
271.163	7.06524
271.381	1.4019
271.599	3.06415
271.817	5.26156
272.036	1.7588
272.254	2.9526
272.472	2.26022
272.69	2.57921
272.908	2.3274
273.126	4.56739
273.344	5.21682
273.562	1.84223
273.779	2.60106
273.997	3.79548
274.215	4.30435
274.433	2.8409
274.651	4.33261
274.869	4.83845
275.087	2.69033
275.305	3.94124
275.523	2.44453
275.74	2.85941
275.958	5.38044
276.176	8.2448
276.394	2.38037
276.612	3.16848
276.829	3.19272
277.047	2.49677
277.265	2.83614
277.483	3.36138
277.7	4.34477
277.918	3.52376
278.136	6.13891
278.353	3.01917
278.571	1.71463
278.789	4.26071
279.006	0.86348
279.224	2.9445
279.442	5.06161
279.659	3.52281
279.877	2.37753
280.094	5.78148
280.312	1.04667
280.529	3.49391
280.747	0.99022
280.964	2.47091
281.182	5.91427
281.399	2.63748
281.617	3.65683
281.834	2.47468
282.052	1.8247
282.269	3.23724
282.487	2.50609
282.704	2.01679
282.921	2.19736
283.139	3.36996
283.356	3.9307
283.574	3.7772
283.791	1.82885
284.008	5.60132
284.226	3.00522
284.443	3.29312
284.66	4.35481
284.877	3.42583
285.095	2.01764
285.312	1.5463
285.529	0.96119
285.746	0.73094
285.964	2.03163
286.181	1.53853
286.398	1.9636
286.615	2.55025
286.832	2.53602
287.05	0.5429
287.267	1.79777
287.484	1.72495
287.701	2.54754
287.918	2.65092
288.135	2.70109
288.352	1.32532
288.569	1.42881
288.786	2.29686
289.003	2.07724
289.22	2.86904
289.437	1.58658
289.654	2.81851
289.871	3.01826
290.088	2.95597
290.305	2.24585
290.522	1.7707
290.739	1.99156
290.956	2.86831
291.173	3.50267
291.39	3.3844
291.607	2.32782
291.824	1.497
292.04	1.24483
292.257	2.96409
292.474	3.17925
292.691	1.84477
292.908	0.86809
293.125	1.68663
293.341	1.17153
293.558	4.85968
293.775	1.83278
293.992	1.85837
294.208	0.89264
294.425	1.25245
294.642	2.01665
294.858	2.55625
295.075	0.622
295.292	1.90765
295.508	2.20609
295.725	4.09754
295.942	1.70733
296.158	1.28156
296.375	1.96098
296.591	1.57126
296.808	1.77858
297.024	2.03298
297.241	2.31144
297.458	2.4597
297.674	0.32933
297.891	1.90083
298.107	1.66677
298.323	1.24293
298.54	3.29461
298.756	1.56916
298.973	0.84222
299.189	3.36387
299.406	1.57002
299.622	2.99879
299.838	3.12119
300.055	2.91959
300.271	0.90342
300.487	1.38533
300.704	1.81469
300.92	1.08576
301.136	4.65612
301.353	2.9907
301.569	2.26257
301.785	2.65566
302.001	3.11686
302.218	2.6749
302.434	2.83381
302.65	1.32547
302.866	2.10203
303.083	4.5485
303.299	4.44912
303.515	2.71652
303.731	2.93477
303.947	1.37355
304.163	2.05199
304.379	2.76721
304.595	3.17574
304.812	2.06883
305.028	2.04285
305.244	2.35977
305.46	3.23519
305.676	3.39072
305.892	3.88377
306.108	3.22991
306.324	2.26969
306.54	4.3762
306.756	3.29613
306.972	3.04657
307.187	2.62618
307.403	4.16428
307.619	2.45458
307.835	3.77097
308.051	4.23009
308.267	2.0104
308.483	3.96281
308.699	3.2918
308.914	2.83351
309.13	2.72941
309.346	1.63719
309.562	1.98884
309.778	1.64773
309.993	3.40554
310.209	3.07991
310.425	1.91028
310.641	2.84052
310.856	2.14556
311.072	1.96839
311.288	2.85868
311.503	3.04219
311.719	1.46651
311.935	1.46387
312.15	3.50176
312.366	3.07998
312.581	3.33239
312.797	3.01912
313.013	3.74033
313.228	2.4247
313.444	2.7955
313.659	2.388
313.875	3.41519
314.09	2.86744
314.306	4.25468
314.521	3.7597
314.737	3.66384
314.952	2.92424
315.168	3.01424
315.383	3.36906
315.599	2.8064
315.814	2.65304
316.029	3.56206
316.245	2.09226
316.46	1.67552
316.675	4.02813
316.891	4.68885
317.106	5.72431
317.321	3.18747
317.537	3.74114
317.752	3.82334
317.967	3.80926
318.183	2.33978
318.398	2.74937
318.613	3.89161
318.828	4.37359
319.043	3.91332
319.259	2.83066
319.474	3.45019
319.689	4.18734
319.904	1.74121
320.119	3.91084
320.334	3.43634
320.549	3.07044
320.765	4.18209
320.98	3.51163
321.195	3.72413
321.41	3.19527
321.625	3.91118
321.84	4.9088
322.055	4.7341
322.27	2.63991
322.485	2.3274
322.7	3.62005
322.915	4.04921
323.13	2.56744
323.345	4.74042
323.56	4.26598
323.775	3.80057
323.989	3.67462
324.204	3.54998
324.419	4.42912
324.634	2.35612
324.849	3.33908
325.064	6.55458
325.279	4.35746
325.493	3.87096
325.708	4.24742
325.923	2.81757
326.138	3.08591
326.352	4.97055
326.567	4.29103
326.782	2.93093
326.997	2.94242
327.211	3.97257
327.426	3.69222
327.641	3.31448
327.855	2.13446
328.07	3.98505
328.285	5.02642
328.499	3.17381
328.714	3.64576
328.928	3.95438
329.143	3.43867
329.358	4.56691
329.572	4.34706
329.787	4.74174
330.001	5.76746
330.216	2.36353
330.43	5.52194
330.645	4.96565
330.859	4.5695
331.074	2.75929
331.288	3.71763
331.503	4.85422
331.717	2.6692
331.931	3.85632
332.146	3.9854
332.36	5.42137
332.575	4.09578
332.789	4.03291
333.003	3.98152
333.218	4.21657
333.432	3.19507
333.646	4.61135
333.86	5.38995
334.075	5.17083
334.289	3.26992
334.503	2.80492
334.717	4.23252
334.932	4.13408
335.146	4.75444
335.36	3.34508
335.574	4.4087
335.788	4.22019
336.003	4.58305
336.217	4.56004
336.431	4.40475
336.645	3.406
336.859	2.86851
337.073	3.91044
337.287	4.2051
337.501	2.91297
337.715	4.31217
337.929	4.62776
338.143	2.90076
338.357	3.75986
338.571	3.35212
338.785	4.59986
338.999	3.5494
339.213	3.51528
339.427	2.8702
339.641	5.15716
339.855	3.72628
340.069	3.31717
340.283	4.85811
340.497	5.47618
340.711	4.47568
340.924	4.05721
341.138	3.20003
341.352	2.9855
341.566	4.23708
341.78	2.78128
341.993	3.66901
342.207	3.43872
342.421	4.33546
342.635	3.97673
342.848	3.70131
343.062	2.18227
343.276	3.52344
343.49	5.74578
343.703	3.64828
343.917	5.1278
344.131	5.07192
344.344	3.40111
344.558	3.83205
344.771	3.17861
344.985	5.46253
345.199	5.54892
345.412	4.40922
345.626	4.56583
345.839	3.01307
346.053	3.38448
346.266	3.30853
346.48	4.75955
346.693	4.61478
346.907	4.35562
347.12	3.42077
347.334	4.45603
347.547	4.43869
347.76	3.95985
347.974	5.25457
348.187	4.38947
348.401	3.90777
348.614	3.604
348.827	3.90019
349.041	4.5899
349.254	2.90262
349.467	3.90147
349.681	3.38327
349.894	3.60476
350.107	5.28326
350.32	5.79344
350.534	3.13408
350.747	3.98811
350.96	3.64798
351.173	3.74487
351.386	4.0128
351.6	3.86323
351.813	3.9174
352.026	4.0822
352.239	3.29413
352.452	4.05337
352.665	5.30311
352.878	4.34586
353.092	6.04742
353.305	4.96169
353.518	4.59591
353.731	3.61319
353.944	5.22865
354.157	4.11723
354.37	3.93879
354.583	3.58271
354.796	3.25822
355.009	5.15983
355.222	4.70779
355.435	4.50867
355.647	5.25358
355.86	3.91935
356.073	4.69051
356.286	4.10114
356.499	5.26122
356.712	5.05212
356.925	5.07455
357.138	5.19809
357.35	3.98621
357.563	4.32463
357.776	4.73663
357.989	4.53182
358.201	4.97715
358.414	4.89222
358.627	5.69608
358.84	4.51049
359.052	3.75735
359.265	4.12067
359.478	5.41255
359.69	2.81388
359.903	5.24732
360.116	5.54471
360.328	3.62269
360.541	5.37844
360.753	4.2703
360.966	4.54571
361.179	4.71262
361.391	4.52803
361.604	4.461
361.816	4.58511
362.029	4.59474
362.241	4.25868
362.454	4.66585
362.666	4.23298
362.879	5.19658
363.091	4.54498
363.304	4.35892
363.516	4.66468
363.728	4.10945
363.941	5.09055
364.153	4.77398
364.366	3.30459
364.578	4.00931
364.79	4.95234
365.003	4.83616
365.215	4.24586
365.427	5.06533
365.639	5.4088
365.852	4.73854
366.064	6.26336
366.276	4.58558
366.488	4.90294
366.701	4.59409
366.913	4.54994
367.125	4.63632
367.337	4.03429
367.549	4.32998
367.762	4.72023
367.974	4.71814
368.186	4.41872
368.398	5.34367
368.61	5.00376
368.822	5.25594
369.034	4.47646
369.246	5.31507
369.458	6.79584
369.67	4.09594
369.882	6.04487
370.094	3.44318
370.306	6.07015
370.518	4.52225
370.73	4.37316
370.942	4.33114
371.154	4.79128
371.366	4.59528
371.578	5.17754
371.79	4.54593
372.002	5.64261
372.214	6.39276
372.425	4.82526
372.637	5.93662
372.849	5.10448
373.061	3.53178
373.273	5.143
373.484	5.08605
373.696	5.5582
373.908	3.39393
374.12	5.5424
374.331	5.09884
374.543	4.26206
374.755	4.27767
374.967	4.90522
375.178	5.46656
375.39	4.59435
375.602	5.06192
375.813	3.82592
376.025	4.35534
376.236	5.01797
376.448	5.16389
376.66	4.73445
376.871	4.76749
377.083	5.81255
377.294	6.21964
377.506	4.70615
377.717	6.00819
377.929	5.33985
378.14	4.81628
378.352	5.25755
378.563	5.3849
378.775	5.96118
378.986	4.39872
379.197	5.0517
379.409	4.4361
379.62	5.43719
379.832	5.3214
380.043	4.82017
380.254	5.13143
380.466	4.32899
380.677	7.1961
380.888	6.3976
381.1	6.82038
381.311	6.54488
381.522	5.28649
381.733	7.11529
381.945	5.07723
382.156	5.12269
382.367	4.85399
382.578	7.0508
382.789	7.04739
383.001	4.66772
383.212	6.29467
383.423	6.35417
383.634	6.02201
383.845	5.82577
384.056	5.01766
384.267	5.35957
384.478	5.2842
384.69	4.56347
384.901	5.55809
385.112	5.60744
385.323	6.51713
385.534	5.60492
385.745	5.5439
385.956	5.47953
386.167	4.78785
386.378	5.60275
386.588	4.90561
386.799	4.77882
387.01	4.4711
387.221	5.85326
387.432	5.43186
387.643	6.50659
387.854	5.23347
388.065	5.14163
388.275	5.27615
388.486	4.934
388.697	5.29524
388.908	5.0093
389.119	6.21409
389.329	6.32996
389.54	5.44743
389.751	5.56858
389.962	6.36042
390.172	5.51023
390.383	5.27393
390.594	4.93588
390.804	5.11214
391.015	5.1922
391.226	5.60994
391.436	5.84072
391.647	5.82892
391.858	5.91651
392.068	4.52136
392.279	4.78909
392.489	5.73027
392.7	6.24441
392.91	5.10637
393.121	5.08339
393.331	5.81561
393.542	6.28293
393.752	5.83832
393.963	5.93299
394.173	5.73873
394.384	5.90997
394.594	5.72935
394.804	4.94567
395.015	5.6672
395.225	5.87634
395.436	5.01162
395.646	5.92078
395.856	5.29743
396.067	4.69629
396.277	6.17852
396.487	5.78946
396.697	5.86482
396.908	5.89237
397.118	5.93132
397.328	5.74908
397.538	6.16433
397.749	5.09039
397.959	6.16477
398.169	5.92132
398.379	4.6816
398.589	5.9281
398.8	5.71386
399.01	5.63598
399.22	5.39112
399.43	6.99238
399.64	5.55135
399.85	6.01611
400.06	5.76937
400.27	5.04998
400.48	5.68045
400.69	6.46461
400.9	5.26306
401.11	4.99999
401.32	6.09457
401.53	5.34253
401.74	6.67718
401.95	5.99056
402.16	5.28942
402.37	5.91996
402.58	5.44341
402.79	6.03336
403	6.47427
403.209	5.33645
403.419	6.45131
403.629	5.2197
403.839	6.50714
404.049	6.24895
404.258	5.57654
404.468	5.41278
404.678	6.10523
404.888	6.55366
405.097	5.57143
405.307	5.7328
405.517	6.30196
405.727	6.05194
405.936	5.61968
406.146	5.99232
406.356	6.68284
406.565	5.75505
406.775	5.60553
406.984	5.54142
407.194	6.92204
407.404	5.73004
407.613	6.15127
407.823	6.26837
408.032	6.49017
408.242	6.43689
408.451	5.52679
408.661	5.62566
408.87	6.89406
409.08	5.39755
409.289	6.03409
409.499	6.10138
409.708	5.93896
409.918	4.74257
410.127	6.12406
410.336	6.80761
410.546	6.41075
410.755	5.65252
410.964	5.80167
411.174	5.42077
411.383	6.2274
411.592	6.14349
411.802	5.43542
412.011	6.38123
412.22	5.73001
412.429	6.95881
412.639	6.83272
412.848	6.52356
413.057	6.68338
413.266	6.7028
413.475	6.02692
413.685	6.23285
413.894	6.57449
414.103	6.69434
414.312	6.65444
414.521	5.97742
414.73	6.28202
414.939	7.40206
415.148	6.55658
415.357	6.38839
415.566	6.18272
415.776	6.04859
415.985	6.19637
416.194	6.79102
416.403	7.48208
416.611	5.66881
416.82	6.20369
417.029	6.58352
417.238	6.24144
417.447	6.06124
417.656	6.49062
417.865	6.25759
418.074	6.53141
418.283	6.68239
418.492	7.25146
418.7	7.10467
418.909	7.98283
419.118	7.18085
419.327	7.44814
419.536	7.39835
419.744	7.3908
419.953	8.43964
420.162	8.64468
420.371	8.01031
420.579	8.41204
420.788	9.28727
420.997	9.29741
421.205	9.59357
421.414	9.36275
421.623	9.45313
421.831	9.15055
422.04	9.56472
422.249	8.83854
422.457	9.21003
422.666	8.53415
422.874	9.27932
423.083	9.36579
423.291	9.34437
423.5	9.18574
423.708	9.48111
423.917	9.85814
424.125	9.49773
424.334	9.40042
424.542	10.89236
424.751	10.36626
424.959	10.04235
425.167	10.12032
425.376	9.95529
425.584	8.97637
425.793	8.92391
426.001	8.12655
426.209	8.27398
426.418	7.36904
426.626	7.11391
426.834	7.03793
427.042	7.34856
427.251	6.93974
427.459	7.78414
427.667	7.34083
427.875	6.63763
428.084	6.94483
428.292	7.89206
428.5	7.5456
428.708	6.6376
428.916	6.67706
429.124	7.22828
429.333	7.0344
429.541	7.15366
429.749	7.25454
429.957	7.24613
430.165	8.78257
430.373	6.44122
430.581	7.42378
430.789	8.07987
430.997	7.06752
431.205	6.90373
431.413	7.57547
431.621	7.13654
431.829	7.77127
432.037	7.24706
432.245	7.47105
432.453	7.67889
432.661	7.38567
432.869	8.50635
433.076	7.18546
433.284	7.45782
433.492	7.91354
433.7	8.15191
433.908	7.41104
434.116	7.64556
434.323	7.68252
434.531	7.5894
434.739	7.87142
434.947	8.03177
435.154	8.0003
435.362	7.55084
435.57	7.45824
435.778	7.2339
435.985	7.8014
436.193	7.26897
436.401	8.21861
436.608	7.5181
436.816	7.32864
437.023	8.38855
437.231	8.5693
437.439	7.81046
437.646	7.94989
437.854	7.83383
438.061	8.11362
438.269	7.59044
438.476	8.19024
438.684	7.77616
438.891	7.67538
439.099	7.44809
439.306	7.30122
439.514	7.36439
439.721	8.30653
439.929	7.99055
440.136	8.78815
440.343	8.80944
440.551	8.70336
440.758	10.18561
440.965	9.06131
441.173	8.72861
441.38	8.51699
441.587	8.50247
441.795	8.17096
442.002	8.07496
442.209	8.01267
442.416	8.18035
442.624	8.1731
442.831	8.02847
443.038	7.61972
443.245	7.31857
443.452	7.76278
443.66	8.14754
443.867	7.59088
444.074	7.53715
444.281	7.55591
444.488	7.85122
444.695	7.89584
444.902	7.73494
445.109	8.71794
445.316	8.50909
445.523	8.80886
445.73	8.99558
445.937	9.83325
446.144	10.20648
446.351	10.52275
446.558	9.65212
446.765	11.24304
446.972	10.68435
447.179	10.27647
447.386	10.77424
447.593	9.40281
447.8	10.18929
448.007	9.0077
448.214	8.6151
448.42	8.14471
448.627	8.54426
448.834	7.99493
449.041	7.95367
449.248	7.83966
449.454	8.36742
449.661	8.8124
449.868	7.71934
450.075	7.66732
450.281	6.91968
450.488	7.34099
450.695	7.42883
450.901	7.55058
451.108	7.5566
451.315	8.39512
451.521	7.75525
451.728	8.51057
451.935	7.52994
452.141	7.8429
452.348	7.88603
452.554	7.89103
452.761	7.71986
452.967	8.73324
453.174	8.07175
453.38	8.11172
453.587	7.34261
453.793	8.11359
454	8.40366
454.206	8.96661
454.413	8.42922
454.619	8.1005
454.825	7.55493
455.032	8.2866
455.238	8.39317
455.445	7.4015
455.651	8.09158
455.857	7.03505
456.064	7.81764
456.27	7.76903
456.476	7.65473
456.682	7.27238
456.889	8.18521
457.095	8.21933
457.301	9.29656
457.507	8.04293
457.714	8.08384
457.92	8.08867
458.126	7.63031
458.332	8.08552
458.538	7.85721
458.744	7.99481
458.951	7.97448
459.157	9.88047
459.363	9.18723
459.569	9.50518
459.775	10.16749
459.981	9.72698
460.187	10.20484
460.393	10.38402
460.599	10.62548
460.805	9.79947
461.011	9.03032
461.217	9.04891
461.423	8.86494
461.629	8.25004
461.835	8.51317
462.041	8.10649
462.247	9.04567
462.453	7.9704
462.658	8.04951
462.864	8.51709
463.07	8.24746
463.276	8.24736
463.482	8.14975
463.688	8.94735
463.893	7.71233
464.099	8.01085
464.305	8.91071
464.511	7.87001
464.716	8.01037
464.922	8.59133
465.128	7.72035
465.333	9.10589
465.539	8.51198
465.745	8.18938
465.95	8.15976
466.156	9.63769
466.362	8.84599
466.567	8.31347
466.773	7.86974
466.978	8.92232
467.184	7.69305
467.389	7.2715
467.595	8.36027
467.8	7.84446
468.006	8.89999
468.211	8.86118
468.417	7.64763
468.622	8.5136
468.828	8.63319
469.033	8.44581
469.239	9.72115
469.444	8.03908
469.649	8.67126
469.855	8.19708
470.06	8.29609
470.266	7.82786
470.471	8.62841
470.676	8.46527
470.881	7.33162
471.087	9.04636
471.292	9.77105
471.497	7.72897
471.703	8.23833
471.908	8.02934
472.113	8.38687
472.318	8.80264
472.523	7.85158
472.729	8.51509
472.934	8.64257
473.139	8.0738
473.344	8.55092
473.549	8.87915
473.754	7.94786
473.959	9.79608
474.164	7.86936
474.369	8.30869
474.575	8.71809
474.78	8.34031
474.985	8.00767
475.19	7.41736
475.395	7.85179
475.6	8.30117
475.804	9.0829
476.009	8.36591
476.214	8.39975
476.419	8.26168
476.624	7.60211
476.829	7.97971
477.034	8.72794
477.239	8.02807
477.444	8.77028
477.648	8.74756
477.853	8.6142
478.058	8.45222
478.263	8.12707
478.468	7.91835
478.672	8.11492
478.877	9.24508
479.082	9.33159
479.287	8.69232
479.491	8.40371
479.696	8.01765
479.901	8.80031
480.105	8.90547
480.31	8.1718
480.515	8.51193
480.719	9.65754
480.924	8.3293
481.128	8.01687
481.333	8.68828
481.538	8.71547
481.742	8.87049
481.947	9.92879
482.151	10.70756
482.356	11.55475
482.56	13.54181
482.765	14.87264
482.969	17.64205
483.174	19.82126
483.378	22.97453
483.582	23.9598
483.787	25.90898
483.991	26.52381
484.196	27.06261
484.4	26.75203
484.604	27.2637
484.809	24.87409
485.013	23.519
485.217	21.56203
485.422	19.47662
485.626	17.72445
485.83	16.59979
486.034	15.79415
486.239	16.0322
486.443	16.34557
486.647	16.4768
486.851	17.39544
487.055	18.85497
487.26	18.67073
487.464	19.63935
487.668	19.38395
487.872	19.91059
488.076	20.18487
488.28	19.46005
488.484	18.36754
488.688	17.847
488.892	17.10972
489.096	16.00956
489.3	14.70505
489.504	13.81997
489.708	13.04962
489.912	12.68505
490.116	12.45174
490.32	11.90987
490.524	12.85622
490.728	13.62469
490.932	14.25397
491.136	15.07396
491.34	16.28558
491.544	16.66974
491.748	16.67904
491.951	16.82684
492.155	16.30828
492.359	16.04961
492.563	14.71685
492.767	13.86804
492.97	12.68767
493.174	11.43934
493.378	10.47124
493.582	9.17221
493.785	8.8503
493.989	8.97625
494.193	8.90376
494.396	8.65682
494.6	9.13741
494.804	8.79364
495.007	8.33211
495.211	8.57179
495.414	8.52349
495.618	8.93791
495.822	9.30669
496.025	8.83917
496.229	9.05245
496.432	8.45461
496.636	8.86381
496.839	8.71375
497.043	9.48961
497.246	9.02646
497.45	8.69506
497.653	8.83964
497.856	8.96108
498.06	8.42897
498.263	8.73908
498.467	8.56461
498.67	9.21877
498.873	9.01725
499.077	8.6775
499.28	8.62398
499.483	8.89955
499.686	9.07174
499.89	8.94292
500.093	9.16007
500.296	8.38211
500.499	9.60437
500.703	8.72316
500.906	8.98913
501.109	9.62291
501.312	8.74589
501.515	8.68946
501.719	8.90035
501.922	9.36262
502.125	8.72748
502.328	8.68168
502.531	8.27566
502.734	8.74672
502.937	7.95617
503.14	8.80318
503.343	8.41745
503.546	8.56815
503.749	8.39561
503.952	9.1281
504.155	8.49731
504.358	8.9398
504.561	8.7903
504.764	8.12214
504.967	8.78817
505.17	8.62679
505.373	9.54336
505.576	8.78964
505.778	9.23569
505.981	8.38567
506.184	9.39545
506.387	7.95788
506.59	9.70216
506.793	9.29066
506.995	9.00516
507.198	7.92348
507.401	9.0823
507.604	9.06074
507.806	8.39533
508.009	8.4718
508.212	9.16234
508.414	8.5039
508.617	8.60773
508.82	8.83888
509.022	9.60554
509.225	8.96166
509.427	8.22711
509.63	9.50413
509.833	8.90427
510.035	8.65607
510.238	8.20797
510.44	9.47505
510.643	8.05985
510.845	9.81163
511.048	9.07718
511.25	8.64765
511.453	8.75121
511.655	9.02931
511.858	8.75995
512.06	9.29994
512.262	8.89088
512.465	9.20707
512.667	8.56229
512.869	8.30691
513.072	9.03261
513.274	9.1933
513.476	9.14288
513.679	9.26015
513.881	8.34808
514.083	9.61926
514.286	8.48052
514.488	8.4563
514.69	8.28938
514.892	8.04387
515.094	9.08763
515.297	8.45253
515.499	8.86022
515.701	8.39526
515.903	9.6545
516.105	9.61978
516.307	9.08163
516.509	7.94707
516.711	8.24346
516.913	8.93072
517.116	8.86659
517.318	8.67633
517.52	9.38642
517.722	9.10253
517.924	8.38288
518.126	9.17506
518.328	8.86905
518.529	9.54764
518.731	10.29829
518.933	8.94745
519.135	9.16888
519.337	9.82672
519.539	9.24453
519.741	8.16905
519.943	8.8127
520.145	8.8031
520.346	9.24614
520.548	8.70868
520.75	9.00712
520.952	8.74045
521.153	9.01078
521.355	9.13989
521.557	8.34439
521.759	8.9327
521.96	8.88281
522.162	8.24798
522.364	9.36354
522.565	8.51455
522.767	9.14958
522.969	9.26152
523.17	9.10436
523.372	9.04211
523.573	8.542
523.775	8.74279
523.977	8.44909
524.178	9.79805
524.38	8.60351
524.581	9.27208
524.783	8.80166
524.984	9.26354
525.186	9.10616
525.387	9.66496
525.589	9.70646
525.79	9.69339
525.991	9.73054
526.193	10.37847
526.394	9.81498
526.596	10.63812
526.797	10.96942
526.998	10.69996
527.2	11.17388
527.401	12.96767
527.602	13.91254
527.803	16.21226
528.005	17.21184
528.206	18.58633
528.407	19.84852
528.608	20.06665
528.81	20.53521
529.011	20.19965
529.212	20.97792
529.413	19.6591
529.614	18.57852
529.815	17.58157
530.017	16.23249
530.218	14.44718
530.419	12.94813
530.62	12.41165
530.821	11.64733
531.022	10.27918
531.223	10.87846
531.424	10.66041
531.625	10.58352
531.826	10.35964
532.027	10.8385
532.228	11.93049
532.429	12.08735
532.63	12.53651
532.831	13.38947
533.032	13.72196
533.233	14.38702
533.433	14.16438
533.634	14.42054
533.835	13.7187
534.036	13.1656
534.237	12.75736
534.438	11.93612
534.638	10.66051
534.839	10.2456
535.04	10.04748
535.241	9.34465
535.441	10.11599
535.642	9.7082
535.843	9.13579
536.043	9.4273
536.244	9.59233
536.445	9.89871
536.645	10.6121
536.846	10.29336
537.047	10.74419
537.247	9.72636
537.448	9.48805
537.648	9.29357
537.849	8.96163
538.049	8.96256
538.25	9.2839
538.451	9.24512
538.651	8.69045
538.851	9.32978
539.052	9.61719
539.252	9.40837
539.453	9.0674
539.653	9.18153
539.854	9.06245
540.054	9.13508
540.254	10.71884
540.455	11.78755
540.655	12.01068
540.855	13.53625
541.056	14.62205
541.256	14.62627
541.456	15.56136
541.657	15.30793
541.857	15.94167
542.057	14.78299
542.257	14.22146
542.458	14.41306
542.658	14.04134
542.858	12.29811
543.058	12.18825
543.258	11.5323
543.458	10.12707
543.659	9.64628
543.859	10.06436
544.059	9.71023
544.259	9.12045
544.459	9.65893
544.659	8.91876
544.859	9.31126
545.059	8.75666
545.259	9.4647
545.459	9.20771
545.659	9.54559
545.859	9.13316
546.059	9.25226
546.259	8.67983
546.459	8.35838
546.659	8.62373
546.859	9.40205
547.059	9.13611
547.258	9.288
547.458	9.27134
547.658	8.54073
547.858	8.43499
548.058	8.99441
548.258	8.82297
548.457	8.47442
548.657	10.11606
548.857	8.85433
549.057	9.34778
549.256	9.0737
549.456	8.64524
549.656	7.83521
549.855	9.9387
550.055	8.61651
550.255	9.89922
550.454	9.06635
550.654	9.41138
550.853	9.76242
551.053	9.21553
551.253	8.99024
551.452	9.20579
551.652	8.12689
551.851	7.97988
552.051	8.61335
552.25	8.51806
552.45	8.45941
552.649	8.51149
552.849	8.3515
553.048	8.83895
553.248	9.32063
553.447	8.28516
553.646	9.25346
553.846	10.31017
554.045	9.58447
554.244	8.07005
554.444	9.47989
554.643	8.37999
554.842	9.71408
555.042	9.99105
555.241	8.46655
555.44	8.08569
555.64	9.07329
555.839	9.62882
556.038	8.99353
556.237	8.34318
556.436	8.76537
556.636	8.92262
556.835	8.22427
557.034	9.70085
557.233	8.6463
557.432	7.77246
557.631	9.32641
557.83	8.4706
558.029	8.37262
558.228	8.22155
558.427	8.08376
558.626	9.04257
558.825	8.03769
559.024	8.53819
559.223	9.88484
559.422	8.50727
559.621	9.01649
559.82	7.16572
560.019	8.62656
560.218	8.30513
560.417	7.05746
560.616	8.25906
560.815	10.79103
561.014	7.61135
561.212	9.76484
561.411	8.71097
561.61	7.8769
561.809	8.48433
562.008	9.90258
562.206	8.47454
562.405	9.05289
562.604	8.62581
562.803	8.93223
563.001	8.5078
563.2	7.83233
563.399	8.97725
563.597	7.8654
563.796	8.62812
563.995	7.84767
564.193	9.13332
564.392	8.31004
564.59	10.00891
564.789	7.53629
564.988	8.56871
565.186	8.90857
565.385	8.70375
565.583	8.56734
565.782	8.76418
565.98	8.614
566.179	8.59266
566.377	8.10453
566.575	8.27744
566.774	9.6863
566.972	9.18253
567.171	9.96177
567.369	9.69979
567.567	8.85599
567.766	8.92178
567.964	7.50751
568.162	9.10505
568.361	9.46831
568.559	8.55399
568.757	8.93614
568.956	8.66444
569.154	8.58131
569.352	9.07491
569.55	8.51564
569.748	8.74396
569.947	8.0605
570.145	8.05064
570.343	7.97941
570.541	9.72693
570.739	7.80136
570.937	8.76175
571.135	9.08843
571.333	10.22572
571.532	10.1363
571.73	8.87552
571.928	9.53481
572.126	9.21334
572.324	8.5939
572.522	9.49602
572.72	10.48019
572.918	8.77972
573.116	9.17574
573.313	8.50368
573.511	8.82113
573.709	8.47856
573.907	9.41295
574.105	8.53044
574.303	7.79217
574.501	7.77143
574.699	9.20991
574.896	8.96942
575.094	9.37854
575.292	7.88603
575.49	9.43427
575.688	8.5902
575.885	9.59752
576.083	10.49637
576.281	9.16235
576.478	8.17243
576.676	9.16633
576.874	7.79145
577.071	8.69316
577.269	10.30277
577.467	8.55419
577.664	8.53557
577.862	9.34912
578.059	8.04619
578.257	9.20628
578.455	8.47215
578.652	8.6051
578.85	7.16521
579.047	8.84198
579.245	8.2842
579.442	8.67879
579.64	8.31364
579.837	7.34834
580.034	10.61768
580.232	8.39646
580.429	7.76211
580.627	9.01827
580.824	9.45703
581.021	9.03654
581.219	8.26087
581.416	8.15982
581.613	9.80196
581.811	9.52105
582.008	7.97065
582.205	9.31507
582.402	8.77732
582.6	9.72953
582.797	8.58216
582.994	9.01967
583.191	9.29877
583.388	8.47572
583.586	9.2056
583.783	9.51975
583.98	7.91746
584.177	8.83509
584.374	6.53459
584.571	8.55384
584.768	8.68142
584.965	8.30738
585.162	9.29661
585.359	10.00502
585.556	8.55487
585.753	8.96656
585.95	7.5143
586.147	7.90161
586.344	9.03088
586.541	8.53434
586.738	7.71844
586.935	8.32035
587.132	8.01154
587.329	9.44912
587.526	8.57005
587.722	12.82586
587.919	7.53206
588.116	9.14177
588.313	9.63286
588.51	10.28371
588.706	8.42029
588.903	9.10143
589.1	9.51144
589.297	11.15927
589.493	8.72022
589.69	9.20613
589.887	8.35462
590.083	7.83108
590.28	8.02367
590.477	9.56905
590.673	9.15495
590.87	9.90142
591.067	8.17645
591.263	8.94379
591.46	9.05771
591.656	8.57526
591.853	10.13783
592.049	7.93533
592.246	8.28603
592.442	9.54107
592.639	9.78098
592.835	7.94418
593.032	9.03423
593.228	7.54739
593.425	7.50608
593.621	7.49158
593.817	8.93083
594.014	8.0014
594.21	8.94482
594.406	9.68292
594.603	9.03754
594.799	8.25799
594.995	6.97969
595.192	9.68137
595.388	8.48234
595.584	8.43766
595.78	7.61829
595.977	11.14848
596.173	10.15163
596.369	8.66617
596.565	8.01039
596.761	7.84293
596.957	9.77019
597.154	8.32628
597.35	8.30174
597.546	8.23015
597.742	9.23591
597.938	8.99399
598.134	8.05958
598.33	8.97483
598.526	9.70116
598.722	8.98971
598.918	10.34983
599.114	9.21681
599.31	7.66708
599.506	8.72646
599.702	7.98617
599.898	8.94882
600.094	9.56329
600.29	9.55968
600.485	9.47706
600.681	8.12829
600.877	10.26078
601.073	8.77842
601.269	10.72281
601.465	10.12926
601.66	7.95305
601.856	7.16758
602.052	10.80424
602.248	8.68222
602.443	7.16576
602.639	7.82415
602.835	8.12617
603.03	8.21809
603.226	9.5793
603.422	8.10458
603.617	8.55989
603.813	8.64912
604.009	8.42142
604.204	9.99707
604.4	7.85174
604.595	9.87469
604.791	8.13038
604.986	9.15964
605.182	8.14593
605.377	8.51634
605.573	8.57402
605.768	8.85935
605.964	9.3215
606.159	9.4301
606.355	9.68548
606.55	8.52171
606.746	9.66369
606.941	8.76057
607.136	10.40429
607.332	11.39881
607.527	7.81277
607.722	9.05613
607.918	8.59351
608.113	7.99299
608.308	9.644
608.503	9.43756
608.699	9.42985
608.894	9.51632
609.089	8.20756
609.284	9.28734
609.479	8.60709
609.675	9.56578
609.87	8.78043
610.065	9.60997
610.26	9.72961
610.455	9.60913
610.65	8.89472
610.845	9.16347
611.04	9.56716
611.235	8.62945
611.43	8.79593
611.625	7.908
611.82	10.39455
612.015	8.26498
612.21	10.69214
612.405	7.37652
612.6	10.72619
612.795	10.40199
612.99	9.81576
613.185	7.867
613.38	8.29317
613.575	9.11999
613.77	12.10206
613.965	7.57886
614.159	8.14303
614.354	10.29216
614.549	10.17781
614.744	9.47031
614.938	7.77799
615.133	7.58629
615.328	10.73756
615.523	10.43125
615.717	12.09933
615.912	8.46017
616.107	9.06481
616.301	8.75605
616.496	8.44594
616.691	10.86281
616.885	9.8859
617.08	12.25823
617.274	10.17459
617.469	11.32448
617.664	9.86773
617.858	8.41737
618.053	9.58183
618.247	8.85599
618.442	6.71167
618.636	10.7093
618.831	8.41667
619.025	8.23528
619.219	12.41436
619.414	5.70061
619.608	9.03815
619.803	8.28957
619.997	11.47734
620.191	10.21984
620.386	9.43102
620.58	8.93127
620.774	7.10624
620.969	7.50985
621.163	9.38148
621.357	7.76845
621.551	8.8594
621.746	9.11744
621.94	8.73364
622.134	12.98482
622.328	11.71243
622.522	7.49833
622.716	10.48019
622.911	10.12832
623.105	10.28445
623.299	9.52447
623.493	12.91997
623.687	8.27956
623.881	8.52373
624.075	10.09609
624.269	10.58671
624.463	7.12494
624.657	7.27963
624.851	9.89999
625.045	10.00728
625.239	10.22407
625.433	8.59603
625.627	11.28609
625.821	8.63124
626.015	8.45387
626.209	9.4899
626.403	7.5514
626.596	9.62582
626.79	10.19518
626.984	8.25852
627.178	9.82548
627.372	9.58287
627.565	10.05948
627.759	7.79067
627.953	8.0783
628.147	9.56078
628.34	10.14456
628.534	11.56138
628.728	8.86937
628.921	10.41113
629.115	10.11195
629.309	10.53236
629.502	10.55909
629.696	9.53261
629.89	9.34669
630.083	9.65515
630.277	9.6212
630.47	11.38847
630.664	8.87359
630.857	7.46671
631.051	10.31741
631.244	10.82511
631.438	10.51639
631.631	8.69598
631.825	10.85597
632.018	10.08069
632.212	11.83955
632.405	10.82733
632.598	8.49106
632.792	9.47659
632.985	6.73528
633.178	9.13359
633.372	9.28173
633.565	9.20029
633.758	10.9545
633.952	8.45284
634.145	8.42904
634.338	9.232
634.531	8.8838
634.724	8.47213
634.918	9.60116
635.111	9.14151
635.304	8.76682
635.497	12.53964
635.69	9.95139
635.883	10.88698
636.077	8.20377
636.27	9.99599
636.463	9.93887
636.656	9.76023
636.849	9.11105
637.042	10.37296
637.235	12.37308
637.428	10.39973
637.621	10.2817
637.814	11.68799
638.007	11.70661
638.2	11.66131
638.393	12.16815
638.586	7.74847
638.778	9.33674
638.971	9.61075
639.164	11.76081
639.357	10.31805
639.55	12.27553
639.743	10.73941
639.935	10.59526
640.128	13.15398
640.321	11.17263
640.514	10.28291
640.707	13.46118
640.899	11.11199
641.092	7.71744
641.285	25.61122
641.477	7.13259
641.67	13.83998
641.863	12.16839
642.055	10.30452
642.248	10.22807
642.441	9.47911
642.633	11.03326
642.826	12.16631
643.018	12.15822
643.211	13.20509
643.403	13.3188
643.596	13.52301
643.788	12.7742
643.981	9.4993
644.173	11.64085
644.366	9.63818
644.558	7.62071
644.751	11.84802
644.943	8.51067
645.135	13.00073
645.328	12.94958
645.52	11.4295
645.712	12.07586
645.905	15.43158
646.097	8.63717
646.289	10.90074
646.482	14.30401
646.674	9.51114
646.866	12.42652
647.058	11.14808
647.251	8.88738
647.443	9.72654
647.635	10.40047
647.827	8.81099
648.019	8.76773
648.211	10.25572
648.404	10.69517
648.596	13.31312
648.788	11.22529
648.98	10.71022
649.172	11.44256
649.364	11.17893
649.556	7.90508
649.748	15.16723
649.94	9.33416
650.132	11.84848
650.324	9.58319
650.516	9.68487
650.708	12.26979
650.9	8.4978
651.092	8.1731
651.284	8.53823
651.476	8.98859
651.667	11.80216
651.859	12.82645
652.051	10.49615
652.243	10.96919
652.435	10.14458
652.627	11.61562
652.818	11.62026
653.01	8.35833
653.202	9.33523
653.394	10.03381
653.585	11.53031
653.777	18.18185
653.969	13.59797
654.16	12.64482
654.352	9.41939
654.544	10.89784
654.735	12.91829
654.927	11.03122
655.118	13.73262
655.31	12.37135
655.502	12.8762
655.693	10.49038
655.885	11.63812
656.076	13.21137
656.268	11.66502
656.459	13.64125
656.651	13.37559
656.842	10.3533
657.034	9.95339
657.225	12.56731
657.416	13.72208
657.608	13.72474
657.799	11.15251
657.99	13.14808
658.182	9.85547
658.373	9.98859
658.564	13.16317
658.756	11.55069
658.947	10.81256
659.138	9.49251
659.33	10.34105
659.521	9.91039
659.712	10.63856
659.903	10.67915
660.094	10.25699
660.286	8.65943
660.477	14.00885
660.668	11.94026
660.859	10.82431
661.05	8.5979
661.241	12.09121
661.432	11.79379
661.623	10.52259
661.814	10.20468
662.006	8.7735
662.197	11.74455
662.388	13.3282
662.579	12.03818
662.77	13.41174
662.96	16.51453
663.151	13.3795
663.342	8.19801
663.533	12.73983
663.724	11.01978
663.915	15.11713
664.106	11.67364
664.297	14.98091
664.488	12.87242
664.678	10.32537
664.869	13.18555
665.06	13.14323
665.251	12.24098
665.442	12.88107
665.632	10.00958
665.823	15.70651
666.014	6.585
666.204	12.91799
666.395	14.29597
666.586	16.67658
666.776	13.11155
666.967	15.46072
667.158	11.92177
667.348	14.62104
667.539	9.97932
667.729	13.90929
667.92	10.43314
668.111	13.95452
668.301	13.72288
668.492	11.41413
668.682	12.38074
668.873	12.00561
669.063	9.61214
669.253	12.39213
669.444	15.05451
669.634	11.96785
669.825	15.98184
670.015	14.12441
670.206	10.85616
670.396	16.39779
670.586	11.57172
670.777	13.2225
670.967	8.24895
671.157	11.69647
671.347	10.78995
671.538	15.51352
671.728	13.71387
671.918	15.76232
672.108	14.13845
672.299	11.69446
672.489	12.98335
672.679	10.96888
672.869	13.42887
673.059	17.35852
673.249	13.86535
673.44	10.49148
673.63	11.98635
673.82	14.56741
674.01	10.35276
674.2	13.48036
674.39	18.38352
674.58	13.89724
674.77	13.23633
674.96	12.24122
675.15	21.27782
675.34	15.09239
675.53	12.94421
675.72	11.41707
675.91	9.45016
676.099	16.72498
676.289	17.96365
676.479	15.38251
676.669	11.46592
676.859	13.80489
677.049	11.02975
677.238	13.05347
677.428	16.50402
677.618	13.54206
677.808	17.25508
677.997	14.14616
678.187	10.7748
678.377	12.45474
678.567	11.59482
678.756	12.15346
678.946	12.80472
679.136	10.1517
679.325	11.49184
679.515	11.33116
679.704	10.331
679.894	14.74199
680.084	13.51304
680.273	15.54565
680.463	11.32096
680.652	10.83805
680.842	12.68244
681.031	14.78419
681.221	11.07034
681.41	14.14244
681.6	12.89249
681.789	14.35478
681.978	15.71455
682.168	13.98473
682.357	13.67399
682.547	14.21051
682.736	13.67407
682.925	16.18878
683.115	15.7835
683.304	14.89328
683.493	13.65461
683.682	14.88138
683.872	14.47823
684.061	15.88989
684.25	14.82287
684.439	19.47039
684.629	15.51667
684.818	21.77234
685.007	13.63761
685.196	13.10037
685.385	18.61409
685.574	14.95544
685.763	14.73611
685.952	14.80075
686.142	11.28968
686.331	17.36076
686.52	10.64401
686.709	19.07285
686.898	18.79804
687.087	15.6445
687.276	18.54686
687.465	17.4414
687.654	13.61554
687.842	17.88906
688.031	11.55492
688.22	18.13469
688.409	14.95992
688.598	14.92737
688.787	20.62112
688.976	14.58727
689.165	19.49918
689.353	13.46226
689.542	16.20384
689.731	17.74031
689.92	20.40064
690.108	16.46336
690.297	13.72838
690.486	15.70395
690.675	16.50757
690.863	19.73427
691.052	18.7976
691.241	15.66808
691.429	16.00872
691.618	19.18828
691.806	11.94989
691.995	14.53002
692.184	15.11728
692.372	14.17657
692.561	15.58865
692.749	16.0245
692.938	24.37117
693.126	17.38663
693.315	14.52795
693.503	17.24711
693.692	18.40518
693.88	17.84101
694.068	21.49384
694.257	15.58407
694.445	17.30471
694.634	10.96157
694.822	18.20762
695.01	18.99991
695.199	22.15252
695.387	20.45873
695.575	19.90313
695.763	15.45457
695.952	14.87617
696.14	11.50596
696.328	14.75498
696.516	16.26319
696.705	17.23055
696.893	16.30417
697.081	11.23046
697.269	17.97507
697.457	13.11454
697.645	12.29458
697.833	17.57236
698.021	13.12434
698.21	13.90059
698.398	14.73745
698.586	12.30378
698.774	11.99423
698.962	14.74085
699.15	12.33837
699.338	11.33196
699.526	16.31797
699.714	13.01824
699.901	13.15299
700.089	17.05092
700.277	13.42826
700.465	15.07959
700.653	17.38686
700.841	15.87385
701.029	13.33559
701.217	19.81486
701.404	15.5781
701.592	20.06608
701.78	22.61664
701.968	15.35217
702.155	15.0373
702.343	12.83567
702.531	20.04446
702.718	17.99555
702.906	14.9432
703.094	14.72515
703.281	20.42828
703.469	15.93327
703.657	20.40523
703.844	27.10396
704.032	23.11806
704.219	15.48412
704.407	18.46903
704.595	21.57193
704.782	18.47294
704.97	16.98065
705.157	16.42297
705.345	23.4498
705.532	29.51795
705.719	20.71057
705.907	24.1138
706.094	20.56498
706.282	27.12759
706.469	20.27657
706.656	21.4119
706.844	20.34751
707.031	24.70003
707.218	22.67971
707.406	27.50639
707.593	24.39025
707.78	24.37747
707.968	22.37226
708.155	20.15897
708.342	24.96235
708.529	24.60683
708.716	24.13936
708.904	28.37862
709.091	24.86546
709.278	19.55395
709.465	29.49037
709.652	27.9045
709.839	26.56388
710.026	22.96295
710.213	16.87902
710.4	22.60084
710.587	24.01445
710.774	25.52032
710.961	25.64975
711.148	22.38787
711.335	24.80893
711.522	21.98489
711.709	23.99592
711.896	28.4716
712.083	25.68345
712.27	19.52976
712.457	23.24305
712.644	17.00003
712.831	29.76681
713.017	23.68921
713.204	25.09148
713.391	20.19782
713.578	25.36544
713.765	27.26525
713.951	23.01794
714.138	32.82551
714.325	22.3475
714.512	21.07329
714.698	18.04099
714.885	25.72199
715.072	21.16052
715.258	20.54787
715.445	17.93862
715.631	24.7197
715.818	11.46232
716.005	17.86856
716.191	22.31367
716.378	18.24325
716.564	22.45533
716.751	16.57445
716.937	18.58239
717.124	23.16532
717.31	16.61554
717.497	27.03867
717.683	17.34538
717.869	27.95689
718.056	17.55501
718.242	21.99718
718.429	19.1526
718.615	16.08549
718.801	19.38375
718.988	24.42178
719.174	21.93458
719.36	18.21756
719.547	25.66213
719.733	21.53578
719.919	21.28625
720.105	22.23589
720.291	20.1191
720.478	21.50848
720.664	19.77564
720.85	18.65986
721.036	32.25288
721.222	27.77811
721.408	20.35981
721.595	27.84452
721.781	27.45085
721.967	26.08477
722.153	27.97944
722.339	23.31943
722.525	23.09702
722.711	16.5735
722.897	15.69808
723.083	19.1183
723.269	25.90714
723.455	34.45238
723.641	38.73839
723.827	22.67907
724.012	23.28948
724.198	20.63316
724.384	27.08088
724.57	23.22491
724.756	15.88609
724.942	13.33827
725.127	26.65728
725.313	27.58954
725.499	26.92419
725.685	30.10565
725.87	23.12207
726.056	17.33358
726.242	27.7881
726.428	15.2788
726.613	26.02317
726.799	20.98511
726.985	17.10312
727.17	14.57839
727.356	31.10042
727.541	17.84939
727.727	21.33489
727.913	25.19553
728.098	20.03594
728.284	25.05045
728.469	16.93564
728.655	18.47102
728.84	26.42556
729.026	25.36876
729.211	25.13156
729.397	23.26406
729.582	25.53482
729.767	21.47193
729.953	23.96011
730.138	27.55805
730.323	12.18149
730.509	17.23563
730.694	29.86785
730.879	24.62099
731.065	23.86579
731.25	33.60153
731.435	24.82823
731.621	15.98245
731.806	19.51874
731.991	23.60629
732.176	16.61497
732.361	29.08351
732.547	23.29378
732.732	15.63712
732.917	33.08856
733.102	17.34475
733.287	18.98375
733.472	22.03206
733.657	21.72355
733.842	15.91681
734.027	20.13537
734.212	20.85694
734.397	19.28677
734.582	22.5422
734.767	26.1011
734.952	28.91393
735.137	11.32592
735.322	28.80906
735.507	24.0433
735.692	23.67425
735.877	32.79897
736.062	31.92835
736.247	24.31629
736.431	21.77955
736.616	28.38875
736.801	24.59167
736.986	23.55451
737.171	18.28843
737.355	16.56496
737.54	29.24479
737.725	23.23593
737.909	37.17059
738.094	20.52235
738.279	26.92504
738.463	22.06621
738.648	25.96049
738.833	25.17059
739.017	34.55209
739.202	21.68857
739.386	22.36528
739.571	18.99075
739.756	27.2412
739.94	23.11248
740.125	26.20308
740.309	19.71169
740.494	26.89779
740.678	24.34952
740.863	25.66793
741.047	24.44002
741.231	31.29056
741.416	20.44324
741.6	31.74844
741.785	19.56967
741.969	28.72051
742.153	32.04198
742.338	13.33605
742.522	23.18092
742.706	28.36268
742.89	17.01665
743.075	23.52779
743.259	30.44283
743.443	30.9383
743.627	31.22425
743.812	36.11164
743.996	16.14541
744.18	22.39278
744.364	21.16292
744.548	38.02169
744.732	23.74168
744.916	29.13934
745.1	27.66671
745.285	21.73392
745.469	27.76974
745.653	32.77946
745.837	18.0811
746.021	37.83787
746.205	30.60391
746.389	25.30502
746.573	22.5867
746.757	32.80616
746.94	21.79134
747.124	31.43371
747.308	18.88243
747.492	31.30313
747.676	19.55208
747.86	39.5702
748.044	21.38109
748.227	15.80854
748.411	48.45888
748.595	25.68892
748.779	19.67837
748.963	27.35928
749.146	25.42779
749.33	20.24735
749.514	20.77678
749.697	31.64622
749.881	20.65346
750.065	18.97739
750.248	25.8423
750.432	39.88311
750.616	24.21073
750.799	18.24184
750.983	39.83158
751.166	41.48343
751.35	16.65414
751.533	28.97403
751.717	35.88725
751.9	35.10564
752.084	23.49715
752.267	20.48047
752.451	19.65327
752.634	25.89831
752.818	28.00449
753.001	31.51229
753.184	32.29076
753.368	26.61449
753.551	6.52762
753.734	20.81432
753.918	41.31046
754.101	21.1128
754.284	29.73738
754.467	22.44498
754.651	21.58697
754.834	20.03073
755.017	32.14652
755.2	32.4904
755.384	19.15502
755.567	29.87967
755.75	31.65957
755.933	23.34502
756.116	30.65764
756.299	21.86372
756.482	19.97526
756.665	30.01684
756.848	24.65736
757.032	27.7143
757.215	18.04305
757.398	20.3788
757.581	21.68742
757.764	43.55436
757.947	26.6021
758.129	31.58353
758.312	10.06097
758.495	24.24297
758.678	23.64315
758.861	23.10827
759.044	37.66964
759.227	19.1813
759.41	20.05257
759.592	29.66576
759.775	23.93493
759.958	31.63551
760.141	18.79184
760.324	40.75494
760.506	35.87798
760.689	29.85784
760.872	40.04091
761.054	28.63676
761.237	24.52931
761.42	26.95129
761.602	31.07601
761.785	28.1589
761.968	32.88897
762.15	38.28868
762.333	25.66461
762.515	29.06178
762.698	23.6138
762.88	31.29754
763.063	28.91975
763.245	33.30898
763.428	19.79192
763.61	23.08272
763.793	18.06801
763.975	27.10974
764.158	23.42117
764.34	21.90376
764.522	20.22362
764.705	23.30302
764.887	35.14373
765.069	16.11158
765.252	29.12144
765.434	29.99941
765.616	25.99592
765.799	20.80968
765.981	30.06672
766.163	21.05587
766.345	34.51722
766.528	20.97926
766.71	12.21159
766.892	26.47225
767.074	33.97052
767.256	23.89654
767.438	38.23152
767.62	27.57108
767.802	43.46301
767.985	31.57837
768.167	39.58937
768.349	22.03303
768.531	30.25703
768.713	28.03782
768.895	32.26543
769.077	29.9029
769.259	46.17376
769.441	62.2934
769.623	34.30738
769.804	37.21771
769.986	36.42787
770.168	42.92312
770.35	54.36849
770.532	40.30201
770.714	46.12723
770.896	44.09244
771.077	20.39922
771.259	47.24479
771.441	40.11476
771.623	48.75092
771.804	60.79705
771.986	20.95668
772.168	32.93085
772.35	44.97798
772.531	62.34304
772.713	37.70604
772.894	51.21432
773.076	37.49594
773.258	33.78151
773.439	52.53368
773.621	58.83882
773.802	25.63202
773.984	30.94163
774.166	43.31211
774.347	55.28155
774.529	50.45927
774.71	19.18317
774.891	36.60751
775.073	33.14669
775.254	51.26969
775.436	31.82375
775.617	64.07706
775.799	33.99546
775.98	53.00012
776.161	58.96448
776.343	58.95898
776.524	37.0689
776.705	35.46159
776.886	20.04078
777.068	42.19175
777.249	89.58635
777.43	63.57757
777.611	26.0688
777.793	35.99898
777.974	59.76718
778.155	32.61022
778.336	28.45291
778.517	68.14229
778.698	32.53774
778.879	18.74127
779.061	11.39376
779.242	43.62441
779.423	43.55685
779.604	32.78358
779.785	34.90518
779.966	42.70684
780.147	52.31215
780.328	51.61557
780.509	69.69402
780.69	51.82825
780.871	32.12958
781.051	23.16228
781.232	39.75022
781.413	41.13642
781.594	35.1425
781.775	33.29895
781.956	30.40368
782.137	16.85147
782.317	33.39327
782.498	41.5117
782.679	42.04029
782.86	41.66344
783.04	31.12192
783.221	42.1287
783.402	63.3672
783.583	41.20077
783.763	49.11674
783.944	33.6315
784.124	23.96498
784.305	61.43682
784.486	48.04255
784.666	37.96318
784.847	21.7785
785.027	81.61692
785.208	32.16819
785.388	31.15127
785.569	31.18356
785.749	34.70997
785.93	33.6195
786.11	22.9934
786.291	45.19335
786.471	43.43549
786.652	50.16197
786.832	37.04082
787.012	41.59582
787.193	26.83219
787.373	38.79742
787.553	32.62378
787.734	41.42409
787.914	34.80782
788.094	53.03325
788.275	41.707
788.455	34.43899
788.635	25.53385
788.815	42.16543
788.995	27.71701
789.176	21.83609
789.356	30.96782
789.536	37.23421
789.716	45.14005
789.896	30.62672
790.076	33.54962
790.256	43.75661
790.436	15.48117
790.616	27.58786
790.796	41.73755
790.976	33.55438
791.156	30.98064
791.336	43.50498
791.516	42.95961
791.696	34.91263
791.876	22.82648
792.056	39.48519
792.236	50.91747
792.416	46.61601
792.596	44.22678
792.776	44.29975
792.956	47.02061
793.135	61.39108
793.315	27.26941
793.495	53.34402
793.675	49.32413
793.854	48.14518
794.034	51.93955
794.214	27.2483
794.394	48.06348
794.573	54.70168
794.753	39.95372
794.933	29.74381
795.112	41.89054
795.292	52.01145
795.472	60.19915
795.651	23.83903
795.831	39.19801
796.01	35.30665
796.19	36.10118
796.369	37.6737
796.549	44.07901
796.728	37.11859
796.908	24.35742
797.087	26.57566
797.267	36.50386
797.446	26.60867
797.626	43.37493
797.805	42.89835
797.984	30.71443
798.164	48.0319
798.343	29.5122
798.522	40.66696
798.702	41.18027
798.881	24.83476
799.06	36.40184
799.239	18.75432
799.419	27.97935
799.598	60.8734
799.777	43.80567
799.956	53.61483
800.136	35.66482
800.315	29.14934
800.494	43.43753
800.673	51.58339
800.852	47.60325
801.031	54.27671
801.21	43.82436
801.389	34.94439
801.568	41.94681
801.747	64.27411
801.926	39.0132
802.105	58.611
802.284	32.71125
802.463	61.13019
802.642	42.42053
802.821	42.60535
803	59.0487
803.179	51.53408
803.358	53.3359
803.537	30.2032
803.716	38.96456
803.895	32.43956
804.073	35.99405
804.252	30.88977
804.431	45.56029
804.61	36.29513
804.789	48.81988
804.967	33.22449
805.146	32.79786
805.325	68.31356
805.503	44.08953
805.682	24.874
805.861	83.43306
806.039	56.31904
806.218	32.64696
806.397	41.48365
806.575	39.04285
806.754	42.65248
806.932	26.13517
807.111	52.92026
807.289	49.98597
807.468	40.39481
807.646	52.19169
807.825	45.02404
808.003	42.317
808.182	52.34751
808.36	40.52331
808.539	30.37635
808.717	59.68102
808.895	31.79213
809.074	44.26775
809.252	38.73943
809.43	48.56683
809.609	54.793
809.787	65.65675
809.965	37.86851
810.144	40.41791
810.322	38.67387
810.5	46.95003
810.678	35.72543
810.856	70.7169
811.035	54.32108
811.213	48.7821
811.391	59.40425
811.569	44.98075
811.747	93.40988
811.925	53.72871
812.103	32.66595
812.281	39.25001
812.459	67.62912
812.637	65.44551
812.816	52.98384
812.994	70.93062
813.171	60.53605
813.349	47.88395
813.527	56.70961
813.705	61.92621
813.883	77.75262
814.061	51.96294
814.239	67.00546
814.417	74.61477
814.595	50.65901
814.773	48.40603
814.95	42.37359
815.128	48.8326
815.306	43.86999
815.484	39.33928
815.662	31.38963
815.839	27.64055
816.017	36.61977
816.195	57.30438
816.372	37.30065
816.55	51.38186
816.728	66.66815
816.905	41.20264
817.083	65.60097
817.261	43.86597
817.438	86.03079
817.616	67.41387
817.793	34.99475
817.971	54.60038
818.148	54.61693
818.326	61.32494
818.503	47.19129
818.681	65.91672
818.858	39.41913
819.036	42.34721
819.213	46.45535
819.391	34.72308
819.568	35.57306
819.745	30.5866
819.923	53.41603
820.1	39.16176
820.277	32.26115
820.455	38.00177
820.632	40.32477
820.809	44.20105
820.986	29.08059
821.164	24.19169
821.341	21.49491
821.518	32.93097
821.695	23.96265
821.872	21.29195
822.05	18.95503
822.227	15.76867
822.404	16.66944
822.581	18.97448
822.758	16.50898
822.935	16.61593
823.112	17.85447
823.289	15.7563
823.466	18.5598
823.643	17.89335
823.82	20.60904
823.997	19.03092
824.174	21.80223
824.351	28.51259
824.528	26.87693
824.705	24.31488
824.882	27.23838
825.059	34.2891
825.236	25.14668
825.412	26.66484
825.589	31.49077
825.766	43.6534
825.943	28.14787
826.12	32.62924
826.296	24.19109
826.473	29.15976
826.65	29.42721
826.827	34.79348
827.003	23.88374
827.18	26.97542
827.357	29.50848
827.533	25.48942
827.71	15.28687
827.887	22.98709
828.063	25.85386
828.24	21.27559
828.416	28.3213
828.593	24.31045
828.769	32.82398
828.946	34.25987
829.122	34.92734
829.299	34.29313
829.475	22.78369
829.652	32.6788
829.828	55.47887
830.005	35.01269
830.181	48.21851
830.357	36.64494
830.534	50.36181
830.71	38.90566
830.886	50.4872
831.063	45.16719
831.239	60.67841
831.415	30.51749
831.592	61.55899
831.768	38.92463
831.944	34.27885
832.12	65.221
832.296	62.47884
832.473	51.98205
832.649	35.2468
832.825	52.98359
833.001	31.95256
833.177	45.55912
833.353	42.18585
833.529	25.27634
833.705	38.22601
833.881	25.82376
834.058	25.93287
834.234	27.21212
834.41	26.85865
834.586	21.7543
834.761	25.65253
834.937	27.85299
835.113	28.8593
835.289	24.71697
835.465	29.80088
835.641	27.53747
835.817	30.17906
835.993	48.38526
836.169	27.16421
836.344	40.4335
836.52	45.42965
836.696	42.23703
836.872	33.63789
837.048	91.93393
837.223	36.93697
837.399	71.35073
837.575	54.27184
837.75	50.3846
837.926	73.99926
838.102	103.73821
838.277	84.13723
838.453	114.16415
838.628	115.82209
838.804	45.65323
838.98	99.60513
839.155	54.92945
839.331	69.75579
839.506	50.04079
839.682	51.77026
839.857	71.80087
840.033	80.90111
840.208	40.77035
840.384	21.16971
840.559	40.6386
840.734	60.63875
840.91	79.70378
841.085	47.50233
841.26	48.83023
841.436	44.37167
841.611	42.3795
841.786	64.06763
841.962	84.7884
842.137	53.83877
842.312	36.94888
842.487	50.08975
842.663	43.83282
842.838	51.66504
843.013	155.18971
843.188	77.85654
843.363	76.99259
843.538	132.35323
843.714	130.17922
843.889	130.7539
844.064	142.55152
844.239	116.23717
844.414	133.90851
844.589	89.79793
844.764	165.97106
844.939	160.49236
845.114	177.26739
845.289	166.23908
845.464	225.34692
845.639	150.18513
845.814	80.30263
845.989	91.87208
846.163	106.80742
846.338	118.27989
846.513	157.91389
846.688	109.52383
846.863	109.64303
847.038	101.68932
847.212	116.79168
847.387	121.44416
847.562	117.79804
847.737	145.72527
847.911	60.6155
848.086	73.78492
848.261	231.05688
848.435	107.05498
848.61	155.46743
848.785	75.93083
848.959	157.27231
849.134	215.98091
849.308	221.41888
849.483	121.05199
849.658	190.86404
849.832	101.43929
850.007	90.82486
850.181	244.20218
850.356	90.54053
850.53	227.08793
850.705	75.11883
850.879	43.80687
851.053	111.4936
851.228	101.34382
851.402	127.34302
851.577	167.93069
851.751	185.14352
851.925	120.13741
852.099	55.18795
852.274	86.23052
852.448	114.92028
852.622	132.30789
852.797	115.46871
852.971	116.50647
853.145	116.52638
853.319	348.62397
853.493	176.2168
853.668	94.87372
853.842	223.80469
854.016	178.96449
854.19	209.16779
854.364	126.26735
854.538	139.59438
854.712	179.67942
854.886	113.15079
855.06	97.61897
855.234	46.75237
855.408	198.15998
855.582	165.30064
855.756	159.60666
855.93	217.23447
856.104	149.21458
856.278	162.4245
856.452	122.24826
856.626	161.48299
856.8	258.11656
856.973	151.71871
857.147	140.11952
857.321	142.3831
857.495	181.88385
857.669	120.75334
857.842	109.06077
858.016	176.84968
858.19	92.04265
858.364	286.90264
858.537	106.15604
858.711	133.00478
858.885	121.39741
859.058	98.60302
859.232	55.92924
859.405	67.10851
859.579	170.00896
859.753	138.76529
859.926	96.55364
860.1	69.34011
860.273	125.95092
860.447	202.28354
860.62	110.29701
860.794	246.31835
860.967	133.64245
861.141	182.69745
861.314	259.49084
861.487	155.08557
861.661	212.10398
861.834	206.2058
862.008	174.37103
862.181	128.89525
862.354	136.36384
862.528	144.9684
862.701	101.42441
862.874	70.06387
863.047	114.04928
863.221	110.31627
863.394	53.06621
863.567	207.60704
863.74	43.03146
863.913	173.50092
864.087	143.22206
864.26	178.40194
864.433	125.12235
864.606	221.85838
864.779	128.86686
864.952	53.4259
865.125	106.46656
865.298	116.24299
865.471	128.79966
865.644	258.99736
865.817	206.67213
865.99	177.76102
866.163	193.35407
866.336	106.46793
866.509	127.9677
866.682	105.61957
866.855	191.09507
867.028	78.79172
867.2	163.8878
867.373	48.46915
867.546	137.89667
867.719	257.84235
867.892	160.46318
868.064	89.04316
868.237	144.79202
868.41	127.30979
868.583	84.84475
868.755	78.03545
868.928	128.31534
869.101	265.79412
869.273	195.27152
869.446	164.73367
869.619	183.03531
869.791	121.69597
869.964	184.90584
870.136	173.86467
870.309	139.78144
870.481	141.70073
870.654	64.48942
870.826	148.87936
870.999	111.18228
871.171	171.63214
871.344	111.13255
871.516	127.15406
871.689	91.64282
871.861	127.99717
872.033	99.5579
872.206	117.71774
872.378	179.53153
872.55	120.43287
872.723	72.58618
872.895	120.84764
873.067	187.98452
873.24	209.69647
873.412	111.24095
873.584	122.68318
873.756	118.49991
873.928	148.7149
874.101	147.60427
874.273	164.03537
874.445	53.5207
874.617	76.9954
874.789	145.53495
874.961	114.22717
875.133	159.76008
875.305	131.79514
875.477	82.91068
875.649	74.05364
875.821	91.15988
875.993	222.47793
876.165	87.88238
876.337	147.3274
876.509	110.95521
876.681	151.36818
876.853	143.10372
877.025	144.5902
877.197	90.45218
877.369	87.97108
877.541	173.86366
877.712	51.60786
877.884	80.84124
878.056	165.79176
878.228	85.96947
878.4	159.33703
878.571	87.62022
878.743	58.37329
878.915	144.95288
879.086	86.31095
879.258	107.89096
879.43	98.05241
879.601	86.74868
879.773	88.11183
879.945	22.87895
880.116	38.66101
880.288	25.72502
880.459	28.5501
880.631	21.94698
880.802	25.77357
880.974	24.57692
881.145	17.7923
881.317	23.3546
881.488	18.03222
881.66	19.7111
881.831	17.99792
882.002	25.85704
882.174	19.04478
882.345	23.92361
882.517	14.36317
882.688	27.72685
882.859	24.19277
883.03	37.70151
883.202	35.43051
883.373	30.35844
883.544	31.53172
883.715	52.82194
883.887	43.36725
884.058	39.13849
884.229	52.7474
884.4	54.84988
884.571	60.27635
884.742	54.10553
884.914	59.21442
885.085	84.57763
885.256	103.6922
885.427	85.61608
885.598	99.80755
885.769	104.85901
885.94	101.80448
886.111	66.97682
886.282	117.82763
886.453	97.73875
886.624	66.09223
886.795	117.89511
886.966	99.54124
887.136	123.86878
887.307	83.48983
887.478	161.26666
887.649	139.7817
887.82	140.65788
887.991	117.21244
888.161	157.2543
888.332	146.08892
888.503	80.91832
888.674	201.75045
888.844	210.94351
889.015	167.10467
889.186	77.90756
889.356	195.24561
889.527	73.95818
889.698	348.59363
889.868	104.09816
890.039	145.68093
890.209	128.10482
890.38	171.75575
890.551	141.99197
890.721	209.52752
890.892	167.34016
891.062	120.82737
891.233	149.99642
891.403	109.55387
891.574	90.84688
891.744	117.64729
891.914	158.00797
892.085	132.60506
892.255	44.93162
892.425	210.14569
892.596	164.88424
892.766	149.7945
892.936	213.74043
893.107	172.31198
893.277	90.93043
893.447	75.45287
893.618	55.09477
893.788	109.87037
893.958	56.48268
894.128	64.21435
894.298	72.20107
894.468	100.39357
894.639	46.74009
894.809	32.11962
894.979	51.78292
895.149	57.02161
895.319	47.50111
895.489	68.14444
895.659	82.50991
895.829	56.93841
895.999	59.08389
896.169	44.07849
896.339	53.60297
896.509	111.88427
896.679	130.28286
896.849	123.66347
897.019	174.76985
897.189	132.59077
897.358	119.64793
897.528	179.00223
897.698	66.3758
897.868	161.53863
898.038	274.68982
898.208	246.53562
898.377	87.18711
898.547	260.98472
898.717	404.04594
898.886	146.36146
899.056	251.94656
899.226	389.81211
899.395	235.23645
899.565	290.67993
899.735	189.01808
899.904	314.3054
900.074	275.07197
900.244	131.83025
900.413	487.33672
900.583	108.77571
900.752	186.73959
900.922	298.20239
901.091	38.09427
901.261	263.38775
901.43	249.75508
901.599	241.87644
901.769	535.12191
901.938	283.84437
902.108	266.75249
902.277	345.10654
902.446	110.63927
902.616	114.496
902.785	166.15952
902.954	273.99206
903.124	187.25442
903.293	158.73677
903.462	83.37474
903.631	113.69053
903.801	84.2027
903.97	46.40161
904.139	79.7847
904.308	58.58049
904.477	46.60995
904.646	31.08358
904.816	44.2466
904.985	64.7557
905.154	98.01378
