Data from WindowProjectSample_Transmission__25__00025.txt Node

Date: Sat May 03 15:23:29 EDT 2025
User: jessi
Spectrometer: SR400872
Trigger mode: 0
Integration Time (sec): 5.000010E-1
Scans to average: 6
Electric dark correction enabled: true
Nonlinearity correction enabled: true
Boxcar width: 0
XAxis mode: Wavelengths
Number of Pixels in Spectrum: 3648
>>>>>Begin Spectral Data<<<<<
184.909	18416.43663
185.132	2653.55225
185.355	23866.0877
185.578	-8141.85218
185.801	556.5471
186.024	-1514.62729
186.247	924.41452
186.47	1813.71441
186.693	-362.4207
186.916	-2714.49667
187.139	-2524.80185
187.362	1809.50448
187.585	2780.60517
187.808	-3336.24504
188.031	735.55476
188.254	-1368.60483
188.476	-774.16327
188.699	2351.93203
188.922	-818.86067
189.145	-10061.36142
189.368	-407.02541
189.591	-1047.17569
189.813	-1778.27239
190.036	1311.88345
190.259	1817.0117
190.482	558.32491
190.705	10794.30086
190.927	-1093.57285
191.15	3613.31806
191.373	2382.52794
191.595	-2308.01186
191.818	2471.80711
192.041	-304.43281
192.263	2944.79886
192.486	2149.84815
192.709	-5640.64564
192.931	2829.70526
193.154	-6282.67112
193.377	195662.90958
193.599	1457.01053
193.822	1911.63467
194.044	-1977.79605
194.267	470.56811
194.489	-336.18
194.712	1423.98595
194.934	3485.44718
195.157	-13452.88185
195.379	863.56393
195.602	2193.00945
195.824	2058.00938
196.047	2559.22863
196.269	3131.3619
196.492	3412.43958
196.714	2890.54951
196.936	1215.9458
197.159	1428.82648
197.381	-2621.35595
197.604	-1067.0075
197.826	6502.39056
198.048	3140.25222
198.271	4249.26237
198.493	2103.89107
198.715	-5923.24594
198.938	-738.81858
199.16	1882.58933
199.382	1534.72919
199.604	-621.66101
199.827	9744.7817
200.049	1025.06936
200.271	-3210.86995
200.493	-51631.21275
200.715	2298.46354
200.938	6736.10107
201.16	-7523.86782
201.382	-3108.63802
201.604	-1907.74645
201.826	7021.4138
202.048	1000.89396
202.27	-17558.01578
202.492	4658.22908
202.715	-1175.89348
202.937	4864.47281
203.159	-2424.02556
203.381	918.57639
203.603	-3744.26115
203.825	-3188.46696
204.047	3450.89974
204.269	-2451.85703
204.491	2362.53312
204.713	1884.49233
204.935	15607.6714
205.156	1837.71464
205.378	-8025.56871
205.6	-4502.41249
205.822	9322.5195
206.044	-660.99314
206.266	4317.94074
206.488	1109.38956
206.71	29108.45278
206.932	2559.80961
207.153	-4741.43981
207.375	-1880.39251
207.597	8776.44193
207.819	4432.43609
208.041	2400.16227
208.262	-2674.17869
208.484	-1113.91974
208.706	-2646.68083
208.927	28011.26666
209.149	994.39497
209.371	-6313.53047
209.593	1654.45134
209.814	4486.93966
210.036	-2035.66377
210.258	-5365.13426
210.479	-1398.38366
210.701	1002.02477
210.922	6951.8509
211.144	-1191.1977
211.366	-6282.30345
211.587	-603.7252
211.809	9616.27515
212.03	-1468.03327
212.252	-2329.88161
212.473	809.67546
212.695	-2369.83963
212.916	3216.29451
213.138	3686.24119
213.359	-1859.9567
213.581	7008.59835
213.802	-1930.35409
214.024	17092.35131
214.245	-3466.24626
214.466	-575.32195
214.688	1666.7507
214.909	943.84805
215.131	-92307.34316
215.352	1506.26271
215.573	2552.29505
215.795	3117.30358
216.016	4317.64118
216.237	-601.75809
216.459	6848.86986
216.68	106954.86827
216.901	-89355.05054
217.122	2087.99151
217.344	6123.00183
217.565	-59379.75926
217.786	1514.29636
218.007	1997.76769
218.228	-1094.71403
218.45	-1299.93191
218.671	-1253.47375
218.892	1153.52
219.113	-18498.90088
219.334	-208.19551
219.555	-5982.26622
219.776	1770.74851
219.997	3669.81463
220.219	1013.08815
220.44	2647.87629
220.661	-3203.71689
220.882	3312.79384
221.103	-1297.72507
221.324	969.5452
221.545	2279.86489
221.766	-5975.67812
221.987	4433.07603
222.208	-1912.73848
222.429	3475.16915
222.65	-125.92674
222.87	-631.57432
223.091	8128.67051
223.312	2736.83387
223.533	6052.81666
223.754	1878.40933
223.975	1523.93455
224.196	-11763.06437
224.417	1006.29161
224.637	1025.30169
224.858	-634.4821
225.079	6691.42286
225.3	585.16185
225.521	2094.69875
225.741	1461.54044
225.962	739.17229
226.183	237.46716
226.404	677.34059
226.624	602.19452
226.845	333.86186
227.066	431.88503
227.286	200.44829
227.507	90.55463
227.728	85.26704
227.948	129.93579
228.169	39.31435
228.389	46.19972
228.61	25.58265
228.831	37.86476
229.051	2.7317
229.272	23.09215
229.492	32.11634
229.713	9.23696
229.933	23.10089
230.154	20.02097
230.374	31.63926
230.595	25.28878
230.815	16.15936
231.036	24.54685
231.256	-3.23398
231.477	44.34617
231.697	27.08949
231.917	24.66241
232.138	37.73549
232.358	76.31168
232.579	66.10785
232.799	13.27329
233.019	61.52406
233.24	81.06801
233.46	23.14449
233.68	41.15373
233.901	33.3462
234.121	16.20375
234.341	10.05661
234.561	-1.08954
234.782	17.01899
235.002	48.17901
235.222	-0.8937
235.442	38.99754
235.662	22.41054
235.883	44.3201
236.103	39.49396
236.323	28.94738
236.543	20.04014
236.763	28.30288
236.983	27.89618
237.203	30.63843
237.423	41.77923
237.643	65.75292
237.864	54.58274
238.084	14.59834
238.304	23.40081
238.524	38.56209
238.744	26.13448
238.964	47.83151
239.184	43.25513
239.404	46.58637
239.624	25.63748
239.843	42.85019
240.063	24.91007
240.283	16.46646
240.503	16.67499
240.723	17.64431
240.943	9.38648
241.163	13.82278
241.383	10.40248
241.603	4.88099
241.822	6.53804
242.042	4.84988
242.262	5.82452
242.482	7.03936
242.702	8.44754
242.921	2.59892
243.141	5.96192
243.361	4.55228
243.581	7.65189
243.8	6.5705
244.02	3.9511
244.24	7.9494
244.459	7.95326
244.679	15.13356
244.899	9.15989
245.118	10.56832
245.338	8.6959
245.558	11.21153
245.777	6.49023
245.997	7.60551
246.216	8.07183
246.436	4.5972
246.655	3.09228
246.875	2.51672
247.094	4.85101
247.314	1.6326
247.533	2.82621
247.753	3.76435
247.972	2.63111
248.192	1.24656
248.411	2.11746
248.631	3.25235
248.85	3.96178
249.07	2.72166
249.289	5.68735
249.508	3.79959
249.728	6.04343
249.947	6.67424
250.166	6.82283
250.386	3.96745
250.605	5.70181
250.824	7.89674
251.044	6.53594
251.263	20.98105
251.482	10.83018
251.701	9.94825
251.921	0.26754
252.14	3.18342
252.359	3.70833
252.578	8.75331
252.798	2.85358
253.017	7.53636
253.236	4.34257
253.455	4.94888
253.674	9.89722
253.893	4.65019
254.112	6.34748
254.331	9.79147
254.551	8.6162
254.77	4.05055
254.989	11.5504
255.208	10.45101
255.427	11.83005
255.646	11.18392
255.865	18.47982
256.084	7.30085
256.303	8.34154
256.522	11.08501
256.741	2.79992
256.96	3.58742
257.179	7.82233
257.397	8.63112
257.616	4.58353
257.835	4.74276
258.054	11.68754
258.273	7.59912
258.492	9.15928
258.711	5.18131
258.93	2.58519
259.148	3.21281
259.367	3.43588
259.586	4.47674
259.805	2.0276
260.023	4.36663
260.242	3.25921
260.461	2.43489
260.68	1.47897
260.898	3.84179
261.117	1.22553
261.336	1.04786
261.554	3.41224
261.773	3.03765
261.992	0.71818
262.21	3.31077
262.429	3.86636
262.648	6.0612
262.866	6.82714
263.085	4.25503
263.303	4.24599
263.522	7.76794
263.74	7.90769
263.959	13.10389
264.178	6.61427
264.396	5.84924
264.615	3.51791
264.833	10.01579
265.051	8.61169
265.27	8.53543
265.488	9.01304
265.707	5.63755
265.925	9.41373
266.144	4.16486
266.362	5.66336
266.58	5.13832
266.799	4.35232
267.017	5.23599
267.235	4.72898
267.454	3.02547
267.672	1.9731
267.89	3.74806
268.109	3.94641
268.327	3.86968
268.545	0.64168
268.763	3.7629
268.982	1.39366
269.2	4.72564
269.418	2.74341
269.636	2.12589
269.854	3.85904
270.073	3.00342
270.291	1.57646
270.509	1.35822
270.727	3.46597
270.945	6.2233
271.163	6.16272
271.381	1.37487
271.599	2.37729
271.817	4.58483
272.036	1.69796
272.254	2.77768
272.472	2.26623
272.69	2.21382
272.908	2.33418
273.126	3.80851
273.344	4.94696
273.562	1.92929
273.779	2.16292
273.997	3.48987
274.215	3.86966
274.433	2.81905
274.651	4.00762
274.869	3.99695
275.087	2.58187
275.305	4.11365
275.523	2.02321
275.74	2.93692
275.958	4.9625
276.176	6.94006
276.394	2.23852
276.612	2.90541
276.829	3.01161
277.047	2.34999
277.265	2.92189
277.483	3.45243
277.7	3.88663
277.918	3.05976
278.136	5.61768
278.353	2.89351
278.571	1.62376
278.789	4.49833
279.006	1.23638
279.224	2.49815
279.442	4.709
279.659	2.82648
279.877	2.14982
280.094	4.8717
280.312	0.96513
280.529	3.03942
280.747	0.6008
280.964	2.53918
281.182	5.1906
281.399	2.48837
281.617	3.35713
281.834	2.52327
282.052	2.1926
282.269	2.83722
282.487	2.51679
282.704	1.61756
282.921	2.14239
283.139	2.88938
283.356	3.94185
283.574	3.36637
283.791	1.76855
284.008	4.79174
284.226	2.67071
284.443	2.82856
284.66	3.54931
284.877	2.93159
285.095	1.92625
285.312	1.55243
285.529	1.03606
285.746	0.71188
285.964	1.93241
286.181	1.21501
286.398	1.80874
286.615	2.4393
286.832	2.48225
287.05	0.74407
287.267	1.73306
287.484	1.85994
287.701	2.6222
287.918	2.37782
288.135	2.65119
288.352	1.09372
288.569	1.33849
288.786	2.34787
289.003	1.59667
289.22	2.48969
289.437	1.62919
289.654	2.68079
289.871	2.90042
290.088	2.66035
290.305	2.12765
290.522	1.55411
290.739	2.06891
290.956	2.84805
291.173	3.48345
291.39	3.20896
291.607	2.19814
291.824	1.70624
292.04	1.00649
292.257	2.67284
292.474	2.93701
292.691	1.76535
292.908	0.91148
293.125	1.79507
293.341	1.04359
293.558	4.6728
293.775	2.02466
293.992	2.04662
294.208	0.72886
294.425	1.27271
294.642	1.52692
294.858	2.2916
295.075	0.85661
295.292	1.79089
295.508	2.26839
295.725	3.40665
295.942	1.62925
296.158	1.26655
296.375	1.96944
296.591	1.48913
296.808	1.63023
297.024	1.78068
297.241	2.07379
297.458	2.21634
297.674	0.14376
297.891	1.69251
298.107	1.27992
298.323	1.11645
298.54	2.67064
298.756	1.18525
298.973	0.58651
299.189	2.66975
299.406	1.26781
299.622	2.74929
299.838	2.6144
300.055	2.52717
300.271	0.84079
300.487	1.04834
300.704	1.13609
300.92	0.81666
301.136	3.71869
301.353	2.59075
301.569	1.87301
301.785	2.15704
302.001	2.51088
302.218	2.41102
302.434	2.22295
302.65	0.80577
302.866	1.50823
303.083	3.75919
303.299	3.59741
303.515	1.95013
303.731	2.29254
303.947	0.91795
304.163	1.31174
304.379	2.09423
304.595	2.42875
304.812	1.41407
305.028	1.2303
305.244	1.79725
305.46	2.68296
305.676	2.89874
305.892	3.37323
306.108	2.36292
306.324	1.57322
306.54	3.80499
306.756	2.56991
306.972	2.44637
307.187	1.94089
307.403	3.29376
307.619	1.3931
307.835	2.95847
308.051	3.24138
308.267	0.84245
308.483	3.12595
308.699	2.38452
308.914	2.13483
309.13	1.93477
309.346	0.83579
309.562	1.26269
309.778	0.74243
309.993	2.49398
310.209	2.1496
310.425	0.88742
310.641	2.00288
310.856	1.25857
311.072	1.08357
311.288	1.8914
311.503	2.30141
311.719	0.59692
311.935	0.66144
312.15	2.50889
312.366	2.22679
312.581	2.54213
312.797	2.27255
313.013	2.76106
313.228	1.56168
313.444	2.03537
313.659	1.53061
313.875	2.46728
314.09	1.99166
314.306	3.10784
314.521	2.71607
314.737	2.54419
314.952	2.26701
315.168	2.11893
315.383	2.67208
315.599	1.83117
315.814	1.97941
316.029	2.68189
316.245	1.17699
316.46	0.64271
316.675	3.21668
316.891	3.87281
317.106	4.63901
317.321	2.6592
317.537	2.5956
317.752	2.98841
317.967	2.94054
318.183	1.4582
318.398	1.85859
318.613	2.98418
318.828	3.54588
319.043	2.66659
319.259	1.76866
319.474	2.47539
319.689	2.9701
319.904	0.69912
320.119	3.0302
320.334	2.45381
320.549	2.07531
320.765	3.38432
320.98	2.56339
321.195	3.03894
321.41	2.2176
321.625	2.81794
321.84	3.7991
322.055	4.07901
322.27	1.45645
322.485	1.22101
322.7	2.3508
322.915	3.2342
323.13	1.75684
323.345	3.74479
323.56	3.19928
323.775	3.12971
323.989	2.90498
324.204	2.42267
324.419	3.12598
324.634	1.26749
324.849	2.16825
325.064	4.6218
325.279	3.31696
325.493	2.84632
325.708	3.14344
325.923	1.72231
326.138	1.91279
326.352	3.69663
326.567	3.10459
326.782	1.98883
326.997	1.97106
327.211	2.83133
327.426	2.45711
327.641	2.24618
327.855	1.29685
328.07	3.00716
328.285	4.11412
328.499	2.05911
328.714	3.01774
328.928	2.98132
329.143	2.65169
329.358	3.48524
329.572	3.38886
329.787	4.0568
330.001	4.95891
330.216	1.1499
330.43	4.45658
330.645	3.77441
330.859	3.2572
331.074	1.94965
331.288	2.79038
331.503	4.25892
331.717	1.62136
331.931	2.61606
332.146	2.68106
332.36	4.49531
332.575	2.93413
332.789	2.73502
333.003	2.9812
333.218	3.39261
333.432	2.44875
333.646	3.4352
333.86	4.36338
334.075	4.18022
334.289	2.32538
334.503	1.73274
334.717	3.6159
334.932	2.91678
335.146	3.66662
335.36	2.12846
335.574	3.24219
335.788	3.14902
336.003	3.62028
336.217	3.72774
336.431	3.1383
336.645	2.46656
336.859	1.89045
337.073	2.84927
337.287	3.25722
337.501	1.94545
337.715	3.54997
337.929	3.44158
338.143	2.13713
338.357	2.89139
338.571	2.46589
338.785	3.76638
338.999	2.53974
339.213	2.80995
339.427	2.00823
339.641	4.2179
339.855	2.61403
340.069	2.19191
340.283	3.9274
340.497	4.32841
340.711	3.61271
340.924	3.02025
341.138	2.38419
341.352	1.99611
341.566	3.28562
341.78	2.13493
341.993	2.52426
342.207	2.51842
342.421	3.48479
342.635	3.41257
342.848	2.93121
343.062	1.11977
343.276	2.78771
343.49	5.02116
343.703	2.80536
343.917	4.26478
344.131	4.38454
344.344	2.68197
344.558	2.87517
344.771	2.27679
344.985	4.39834
345.199	4.99401
345.412	3.54724
345.626	3.847
345.839	1.967
346.053	2.54083
346.266	2.65377
346.48	4.03459
346.693	3.93397
346.907	3.97332
347.12	2.70213
347.334	3.58231
347.547	3.75556
347.76	3.46611
347.974	4.49052
348.187	3.78259
348.401	3.43941
348.614	2.59938
348.827	3.2796
349.041	3.85519
349.254	1.87469
349.467	3.37841
349.681	2.76093
349.894	2.78846
350.107	4.84707
350.32	5.37861
350.534	2.48808
350.747	3.40716
350.96	2.90211
351.173	3.22308
351.386	3.34819
351.6	3.20817
351.813	3.36016
352.026	3.61077
352.239	3.0813
352.452	3.29588
352.665	4.56513
352.878	3.52181
353.092	5.77047
353.305	4.30951
353.518	4.1211
353.731	2.81885
353.944	4.66942
354.157	3.34517
354.37	3.65248
354.583	2.81676
354.796	3.08017
355.009	4.70094
355.222	4.08453
355.435	4.15124
355.647	5.08406
355.86	3.46462
356.073	4.18858
356.286	3.75741
356.499	5.04755
356.712	4.86104
356.925	4.76224
357.138	5.01757
357.35	3.63821
357.563	4.06624
357.776	4.7122
357.989	4.50785
358.201	4.98672
358.414	4.66049
358.627	5.73338
358.84	4.40377
359.052	3.57588
359.265	3.98096
359.478	5.33734
359.69	2.52294
359.903	5.33034
360.116	5.51055
360.328	3.63072
360.541	5.48354
360.753	4.4052
360.966	4.54539
361.179	4.94982
361.391	4.69061
361.604	4.57584
361.816	4.84291
362.029	4.87423
362.241	4.55239
362.454	5.07166
362.666	4.50103
362.879	5.75441
363.091	4.94691
363.304	4.79216
363.516	4.98088
363.728	4.37223
363.941	5.58549
364.153	5.3827
364.366	3.69405
364.578	4.48436
364.79	5.72437
365.003	5.70404
365.215	4.98298
365.427	5.83633
365.639	6.13153
365.852	5.72372
366.064	6.6889
366.276	5.32454
366.488	5.723
366.701	5.3976
366.913	5.16827
367.125	5.5331
367.337	5.06189
367.549	5.23998
367.762	5.33254
367.974	5.72257
368.186	5.59279
368.398	6.62644
368.61	6.04153
368.822	6.02091
369.034	5.50524
369.246	6.72619
369.458	8.10122
369.67	5.1979
369.882	7.09766
370.094	4.32297
370.306	6.97333
370.518	5.77702
370.73	5.76621
370.942	5.85388
371.154	6.14838
371.366	6.27223
371.578	6.83983
371.79	6.31505
372.002	7.32822
372.214	8.12789
372.425	6.47468
372.637	7.77279
372.849	6.83269
373.061	5.01097
373.273	6.83497
373.484	7.14657
373.696	7.47397
373.908	5.08225
374.12	7.24135
374.331	7.49826
374.543	6.08381
374.755	6.24085
374.967	6.77862
375.178	7.93003
375.39	6.86021
375.602	7.21756
375.813	6.09138
376.025	6.65282
376.236	7.36949
376.448	7.64703
376.66	7.43801
376.871	7.52868
377.083	8.1747
377.294	8.91131
377.506	7.36086
377.717	8.70495
377.929	8.01341
378.14	7.69414
378.352	8.24725
378.563	8.59694
378.775	8.95581
378.986	7.25762
379.197	8.2068
379.409	7.20687
379.62	8.50972
379.832	8.23413
380.043	8.14638
380.254	8.56926
380.466	7.51945
380.677	10.23306
380.888	9.96091
381.1	10.59764
381.311	10.57292
381.522	9.01816
381.733	10.75008
381.945	8.60012
382.156	8.02789
382.367	8.53283
382.578	10.83958
382.789	11.25067
383.001	8.18562
383.212	10.2217
383.423	10.43745
383.634	9.69155
383.845	9.9456
384.056	8.81472
384.267	9.2754
384.478	9.33159
384.69	8.51425
384.901	9.85328
385.112	9.65215
385.323	10.98786
385.534	10.14395
385.745	10.13775
385.956	9.83674
386.167	9.17075
386.378	10.38229
386.588	9.34424
386.799	8.97868
387.01	8.98935
387.221	10.68722
387.432	10.22809
387.643	11.08448
387.854	10.13083
388.065	10.01063
388.275	10.10568
388.486	9.83948
388.697	10.40899
388.908	10.06665
389.119	11.11633
389.329	11.50044
389.54	10.66237
389.751	10.89592
389.962	11.39943
390.172	10.59881
390.383	10.79997
390.594	10.26244
390.804	10.23879
391.015	10.47254
391.226	11.08587
391.436	11.38052
391.647	11.27053
391.858	11.4444
392.068	10.01981
392.279	10.69897
392.489	11.62379
392.7	11.94872
392.91	10.94201
393.121	10.79579
393.331	11.63399
393.542	12.17869
393.752	12.06472
393.963	12.02506
394.173	12.02857
394.384	12.22261
394.594	11.68672
394.804	11.02356
395.015	11.74583
395.225	12.18584
395.436	11.21735
395.646	12.10051
395.856	11.84366
396.067	11.01787
396.277	12.39058
396.487	12.33048
396.697	12.54917
396.908	12.68797
397.118	12.55942
397.328	12.22678
397.538	12.7675
397.749	11.86027
397.959	12.96774
398.169	12.66203
398.379	11.45828
398.589	12.51575
398.8	12.72222
399.01	12.72457
399.22	12.33573
399.43	13.80711
399.64	12.50238
399.85	12.93889
400.06	12.8456
400.27	12.09796
400.48	12.7709
400.69	13.35887
400.9	12.51984
401.11	12.01427
401.32	13.22107
401.53	12.44918
401.74	13.75514
401.95	13.07788
402.16	12.70328
402.37	13.11491
402.58	12.7927
402.79	13.2511
403	13.48268
403.209	12.5236
403.419	13.82876
403.629	12.63753
403.839	13.96509
404.049	13.86579
404.258	12.99999
404.468	12.97782
404.678	14.05815
404.888	14.30369
405.097	13.53263
405.307	13.50847
405.517	14.19425
405.727	14.00897
405.936	13.33765
406.146	13.81881
406.356	14.63979
406.565	13.49669
406.775	13.54515
406.984	13.4986
407.194	15.32108
407.404	13.9296
407.613	14.3434
407.823	14.26994
408.032	14.79406
408.242	14.38217
408.451	13.48745
408.661	13.73663
408.87	14.95294
409.08	13.38193
409.289	14.19549
409.499	14.0684
409.708	14.05577
409.918	12.73147
410.127	14.24327
410.336	15.21175
410.546	14.67906
410.755	13.89422
410.964	13.97368
411.174	13.69689
411.383	14.6046
411.592	14.65244
411.802	13.83416
412.011	14.9151
412.22	14.18581
412.429	15.50331
412.639	15.62499
412.848	14.90429
413.057	15.84483
413.266	15.00855
413.475	14.45064
413.685	14.89894
413.894	15.18402
414.103	15.23642
414.312	14.9524
414.521	14.16084
414.73	14.85919
414.939	15.81661
415.148	15.00923
415.357	14.8191
415.566	14.8949
415.776	14.6032
415.985	14.67883
416.194	15.38046
416.403	16.05627
416.611	14.05035
416.82	14.62912
417.029	15.3206
417.238	14.73893
417.447	14.74587
417.656	15.17021
417.865	15.05279
418.074	15.68053
418.283	16.7678
418.492	18.09771
418.7	17.72692
418.909	19.86847
419.118	18.66476
419.327	19.35524
419.536	19.44303
419.744	19.97719
419.953	21.52168
420.162	22.03625
420.371	21.62691
420.579	22.9165
420.788	23.95529
420.997	24.12785
421.205	24.58221
421.414	24.2474
421.623	24.70716
421.831	23.85496
422.04	24.31412
422.249	23.10124
422.457	23.377
422.666	22.14726
422.874	23.24935
423.083	23.31068
423.291	23.49765
423.5	23.59356
423.708	24.42584
423.917	24.99358
424.125	24.17075
424.334	24.37672
424.542	26.37786
424.751	25.67909
424.959	25.13988
425.167	24.89992
425.376	24.71401
425.584	22.47384
425.793	22.27647
426.001	20.90957
426.209	20.40503
426.418	18.85291
426.626	17.84593
426.834	17.22291
427.042	16.74698
427.251	16.41371
427.459	17.07885
427.667	16.58832
427.875	15.6298
428.084	16.13142
428.292	17.0855
428.5	17.14627
428.708	15.82867
428.916	16.14138
429.124	16.51942
429.333	16.10575
429.541	16.41649
429.749	16.57915
429.957	16.65865
430.165	18.0948
430.373	15.66729
430.581	16.40989
430.789	17.33174
430.997	16.5231
431.205	16.07522
431.413	16.96048
431.621	16.53556
431.829	17.072
432.037	16.51823
432.245	16.98316
432.453	17.23956
432.661	16.70871
432.869	18.30346
433.076	17.27508
433.284	18.11734
433.492	19.03704
433.7	19.138
433.908	18.31226
434.116	18.60177
434.323	18.16841
434.531	18.03358
434.739	17.69818
434.947	17.71522
435.154	17.75758
435.362	17.18851
435.57	17.20468
435.778	16.80997
435.985	17.3035
436.193	16.68082
436.401	17.91788
436.608	17.26736
436.816	16.92596
437.023	18.1866
437.231	18.33776
437.439	17.3854
437.646	17.60414
437.854	17.56296
438.061	17.78184
438.269	17.56682
438.476	18.05132
438.684	17.81571
438.891	18.64291
439.099	18.55843
439.306	18.63867
439.514	18.89278
439.721	20.97675
439.929	20.73584
440.136	21.98211
440.343	22.34732
440.551	22.10214
440.758	24.06504
440.965	22.4111
441.173	22.16835
441.38	21.80357
441.587	21.07464
441.795	20.90333
442.002	19.89097
442.209	19.61865
442.416	19.03617
442.624	18.81245
442.831	18.12566
443.038	17.5337
443.245	17.17651
443.452	17.62183
443.66	18.25469
443.867	17.476
444.074	17.34958
444.281	17.90932
444.488	18.55708
444.695	19.20357
444.902	19.88833
445.109	22.04301
445.316	21.94547
445.523	22.90172
445.73	23.54883
445.937	24.77446
446.144	25.62624
446.351	26.60772
446.558	24.72601
446.765	27.78213
446.972	26.30848
447.179	25.84507
447.386	26.34465
447.593	23.83071
447.8	24.81325
448.007	22.59134
448.214	21.38005
448.42	20.54356
448.627	20.51156
448.834	19.42578
449.041	18.87428
449.248	18.30082
449.454	18.66151
449.661	19.37511
449.868	17.86871
450.075	17.84837
450.281	17.11197
450.488	17.56668
450.695	17.54403
450.901	17.5429
451.108	17.88557
451.315	18.77376
451.521	17.65512
451.728	18.79502
451.935	17.94037
452.141	18.18726
452.348	18.2574
452.554	18.46333
452.761	17.93321
452.967	19.10597
453.174	18.48871
453.38	18.31437
453.587	17.88687
453.793	18.49466
454	18.69287
454.206	19.75467
454.413	18.9106
454.619	18.62734
454.825	18.07196
455.032	18.6817
455.238	18.88669
455.445	17.7283
455.651	18.1884
455.857	17.3883
456.064	18.396
456.27	18.39304
456.476	18.10521
456.682	17.70205
456.889	18.56931
457.095	18.78865
457.301	19.58783
457.507	18.54259
457.714	18.43854
457.92	18.6154
458.126	17.94836
458.332	18.16798
458.538	18.52587
458.744	19.6752
458.951	20.78613
459.157	23.88151
459.363	23.7658
459.569	24.59355
459.775	25.42203
459.981	25.79939
460.187	26.24542
460.393	26.04201
460.599	25.84666
460.805	24.49643
461.011	22.5514
461.217	21.63915
461.423	20.0333
461.629	19.23674
461.835	19.53513
462.041	19.10269
462.247	20.14748
462.453	19.03114
462.658	19.09839
462.864	19.58531
463.07	19.22548
463.276	18.93301
463.482	18.8072
463.688	20.03085
463.893	18.57897
464.099	18.89352
464.305	20.10499
464.511	18.83921
464.716	18.8609
464.922	19.45448
465.128	18.5854
465.333	20.02473
465.539	19.66567
465.745	19.54977
465.95	19.01796
466.156	21.0606
466.362	20.11201
466.567	19.31252
466.773	19.09189
466.978	20.47582
467.184	19.01759
467.389	18.51726
467.595	19.7871
467.8	19.08322
468.006	20.51
468.211	20.34105
468.417	19.13805
468.622	19.89037
468.828	19.9065
469.033	19.98186
469.239	21.4388
469.444	19.40813
469.649	20.18884
469.855	19.41734
470.06	19.93385
470.266	18.99528
470.471	20.16001
470.676	20.05883
470.881	18.53557
471.087	20.94019
471.292	21.01915
471.497	18.86775
471.703	19.50859
471.908	19.40014
472.113	19.8573
472.318	20.28433
472.523	19.07971
472.729	19.94317
472.934	20.07914
473.139	19.55927
473.344	20.16967
473.549	20.81444
473.754	19.58367
473.959	21.6889
474.164	19.72832
474.369	19.76949
474.575	20.20402
474.78	19.74839
474.985	19.43191
475.19	18.78495
475.395	19.59905
475.6	19.72352
475.804	21.0633
476.009	19.92958
476.214	19.65856
476.419	19.6868
476.624	18.9196
476.829	19.5837
477.034	20.35754
477.239	19.69799
477.444	20.20984
477.648	20.56695
477.853	20.44141
478.058	19.95407
478.263	19.92327
478.468	19.3269
478.672	19.71703
478.877	20.99455
479.082	21.29391
479.287	20.46468
479.491	20.24493
479.696	19.70548
479.901	20.73837
480.105	20.56041
480.31	19.68848
480.515	20.32032
480.719	21.76156
480.924	19.94357
481.128	20.15268
481.333	21.701
481.538	22.10841
481.742	23.34567
481.947	25.5699
482.151	27.77445
482.356	30.38296
482.56	35.09111
482.765	39.46988
482.969	46.67234
483.174	52.90267
483.378	60.54242
483.582	63.6602
483.787	67.16582
483.991	68.67653
484.196	68.79308
484.4	67.42402
484.604	66.47146
484.809	61.19042
485.013	57.15266
485.217	51.45775
485.422	45.73841
485.626	41.47091
485.83	39.04484
486.034	37.96836
486.239	39.05786
486.443	40.16999
486.647	41.94227
486.851	44.44663
487.055	47.64104
487.26	48.63672
487.464	50.90871
487.668	50.26162
487.872	51.50369
488.076	51.02338
488.28	49.01269
488.484	46.10101
488.688	43.98627
488.892	41.37745
489.096	38.18685
489.3	35.46477
489.504	32.83582
489.708	30.9201
489.912	30.04038
490.116	29.99012
490.32	30.01414
490.524	32.36022
490.728	34.66743
490.932	37.38
491.136	39.88505
491.34	42.10053
491.544	43.35246
491.748	43.38939
491.951	42.8105
492.155	41.84365
492.359	40.18987
492.563	36.72346
492.767	34.41928
492.97	30.85281
493.174	27.20176
493.378	24.97332
493.582	22.11682
493.785	21.44001
493.989	20.93943
494.193	19.99363
494.396	19.28557
494.6	19.60971
494.804	19.61788
495.007	20.48108
495.211	20.67836
495.414	20.8771
495.618	21.05873
495.822	21.5581
496.025	20.90045
496.229	21.68681
496.432	21.49642
496.636	22.22518
496.839	22.34221
497.043	23.31953
497.246	22.4967
497.45	22.34079
497.653	22.69182
497.856	22.30961
498.06	21.61278
498.263	21.30303
498.467	21.22053
498.67	21.82861
498.873	21.3927
499.077	21.25659
499.28	21.26208
499.483	21.81949
499.686	21.9137
499.89	21.27121
500.093	21.74332
500.296	21.02695
500.499	22.3454
500.703	21.43139
500.906	21.6971
501.109	22.34488
501.312	21.21892
501.515	21.17633
501.719	21.94061
501.922	22.14373
502.125	21.46616
502.328	21.36882
502.531	20.78079
502.734	21.48707
502.937	20.41515
503.14	21.59395
503.343	20.97423
503.546	21.56545
503.749	21.17591
503.952	21.76078
504.155	21.03201
504.358	21.70447
504.561	21.81968
504.764	20.79688
504.967	21.44483
505.17	21.66729
505.373	22.7725
505.576	21.57086
505.778	22.37669
505.981	20.98203
506.184	22.22675
506.387	20.55663
506.59	22.55706
506.793	22.33262
506.995	21.86618
507.198	20.24015
507.401	22.00787
507.604	21.90561
507.806	21.06832
508.009	21.23947
508.212	22.20454
508.414	21.27844
508.617	21.34587
508.82	21.57229
509.022	22.70301
509.225	21.97493
509.427	20.73641
509.63	22.52166
509.833	21.63909
510.035	21.38674
510.238	20.91722
510.44	22.51509
510.643	20.6878
510.845	22.71895
511.048	21.94747
511.25	21.38375
511.453	21.61356
511.655	22.02507
511.858	21.73299
512.06	22.46089
512.262	21.91945
512.465	22.39197
512.667	21.8348
512.869	21.32347
513.072	22.3676
513.274	22.50774
513.476	22.39348
513.679	22.59514
513.881	21.61759
514.083	22.9598
514.286	21.77085
514.488	21.46549
514.69	21.60504
514.892	21.16889
515.094	22.4674
515.297	21.70351
515.499	21.71257
515.701	21.34302
515.903	22.96704
516.105	23.12768
516.307	22.30547
516.509	20.67859
516.711	21.08807
516.913	21.63305
517.116	21.7688
517.318	21.40175
517.52	22.24255
517.722	22.17337
517.924	21.88582
518.126	23.78961
518.328	23.75555
518.529	24.61866
518.731	25.41044
518.933	23.56076
519.135	23.7636
519.337	24.30076
519.539	23.1658
519.741	21.48008
519.943	21.99112
520.145	22.00956
520.346	22.67371
520.548	22.13534
520.75	22.59565
520.952	22.16241
521.153	22.77903
521.355	22.64101
521.557	21.75051
521.759	22.26562
521.96	22.18477
522.162	21.42338
522.364	22.91397
522.565	21.6355
522.767	22.49315
522.969	22.82867
523.17	22.43136
523.372	22.27648
523.573	21.93126
523.775	22.16718
523.977	21.24011
524.178	23.1937
524.38	21.69046
524.581	22.21061
524.783	21.83267
524.984	23.51435
525.186	24.02701
525.387	25.27051
525.589	25.77372
525.79	26.07829
525.991	26.35404
526.193	26.89395
526.394	26.65887
526.596	27.8315
526.797	28.62174
526.998	28.39604
527.2	30.21021
527.401	34.35074
527.602	37.77697
527.803	43.24966
528.005	47.24973
528.206	50.74192
528.407	53.33887
528.608	54.16149
528.81	54.33073
529.011	53.30819
529.212	53.92016
529.413	50.49417
529.614	46.60193
529.815	43.3806
530.017	39.07657
530.218	34.54424
530.419	31.29354
530.62	29.39805
530.821	28.19189
531.022	26.08141
531.223	26.78518
531.424	26.20497
531.625	26.76967
531.826	26.69489
532.027	28.39892
532.228	30.983
532.429	32.30797
532.63	33.82564
532.831	36.08593
533.032	36.50993
533.233	37.94869
533.433	37.35698
533.634	37.22291
533.835	35.9758
534.036	34.41679
534.237	32.39966
534.438	30.08543
534.638	27.07201
534.839	25.63655
535.04	24.65383
535.241	23.45879
535.441	24.89567
535.642	24.40513
535.843	24.45228
536.043	25.35175
536.244	26.03215
536.445	26.56286
536.645	27.47321
536.846	27.24499
537.047	27.23204
537.247	25.60618
537.448	24.61829
537.648	24.02005
537.849	22.96734
538.049	23.05634
538.25	22.89946
538.451	23.27298
538.651	22.19784
538.851	22.83105
539.052	23.42011
539.252	23.03041
539.453	22.36083
539.653	22.619
539.854	22.92715
540.054	25.1246
540.254	28.76295
540.455	32.00349
540.655	33.5975
540.855	37.53529
541.056	39.96675
541.256	40.14511
541.456	41.64702
541.657	41.08641
541.857	41.16718
542.057	38.80168
542.257	37.33334
542.458	36.61739
542.658	34.23198
542.858	30.91655
543.058	30.08211
543.258	28.44036
543.458	25.5402
543.659	24.75774
543.859	25.03166
544.059	24.46656
544.259	23.22058
544.459	23.65248
544.659	22.72885
544.859	23.24194
545.059	22.79547
545.259	23.61637
545.459	23.09599
545.659	23.58416
545.859	22.98147
546.059	23.19147
546.259	22.74257
546.459	22.42651
546.659	22.56689
546.859	23.78083
547.059	23.62441
547.258	23.30402
547.458	23.94987
547.658	22.76487
547.858	22.59714
548.058	23.59951
548.258	23.34004
548.457	22.73495
548.657	24.96679
548.857	23.29527
549.057	24.11311
549.256	23.6745
549.456	22.68873
549.656	21.8398
549.855	24.59728
550.055	22.8943
550.255	24.74176
550.454	23.44188
550.654	23.548
550.853	24.01574
551.053	24.02088
551.253	23.11585
551.452	23.17639
551.652	22.25056
551.851	22.30836
552.051	23.04606
552.25	22.48021
552.45	22.75308
552.649	23.45291
552.849	22.79501
553.048	23.44666
553.248	23.9279
553.447	22.69715
553.646	24.02981
553.846	24.81363
554.045	24.23398
554.244	22.39327
554.444	24.71103
554.643	22.75849
554.842	24.62677
555.042	24.87655
555.241	22.88054
555.44	22.57301
555.64	24.18542
555.839	24.95295
556.038	24.06237
556.237	22.74817
556.436	23.50558
556.636	24.1705
556.835	22.65979
557.034	25.09913
557.233	23.38902
557.432	22.23443
557.631	24.38404
557.83	23.69131
558.029	23.10623
558.228	22.62438
558.427	22.82737
558.626	23.99414
558.825	22.67806
559.024	23.6442
559.223	25.14194
559.422	23.34789
559.621	23.60487
559.82	21.38626
560.019	23.25935
560.218	23.40933
560.417	21.03788
560.616	23.02105
560.815	26.43126
561.014	22.32988
561.212	25.18883
561.411	23.54753
561.61	22.38095
561.809	23.12167
562.008	24.40273
562.206	23.10973
562.405	24.06116
562.604	23.38834
562.803	24.19577
563.001	23.47333
563.2	22.59691
563.399	24.11656
563.597	22.95812
563.796	23.21355
563.995	22.63768
564.193	24.06168
564.392	23.38949
564.59	25.20717
564.789	22.04205
564.988	23.10404
565.186	23.76576
565.385	23.39129
565.583	23.32786
565.782	23.58175
565.98	23.48057
566.179	23.5837
566.377	23.03796
566.575	23.42691
566.774	25.26335
566.972	24.37866
567.171	25.59607
567.369	25.02942
567.567	23.99116
567.766	24.3302
567.964	21.96172
568.162	24.02776
568.361	24.52839
568.559	23.72253
568.757	23.91446
568.956	23.7893
569.154	23.60333
569.352	24.23525
569.55	23.72577
569.748	23.88465
569.947	23.06701
570.145	22.97888
570.343	22.74812
570.541	24.39594
570.739	22.61247
570.937	23.67941
571.135	23.78979
571.333	25.33247
571.532	25.12991
571.73	24.1886
571.928	24.66045
572.126	24.24379
572.324	23.39184
572.522	25.10663
572.72	26.30739
572.918	24.14024
573.116	24.22907
573.313	24.35069
573.511	24.34685
573.709	23.39783
573.907	24.73047
574.105	23.61429
574.303	22.37124
574.501	22.53186
574.699	24.42323
574.896	24.61969
575.094	24.29996
575.292	22.72554
575.49	24.59519
575.688	23.77552
575.885	24.88875
576.083	26.10628
576.281	24.8007
576.478	23.38708
576.676	24.5981
576.874	22.48199
577.071	23.7979
577.269	26.2697
577.467	24.24944
577.664	23.53935
577.862	25.11499
578.059	23.22881
578.257	24.95267
578.455	24.00935
578.652	24.13341
578.85	21.82799
579.047	24.10816
579.245	23.80446
579.442	23.89974
579.64	24.02135
579.837	22.36727
580.034	26.92024
580.232	23.96137
580.429	22.75985
580.627	24.62528
580.824	25.51431
581.021	24.5486
581.219	23.62892
581.416	23.14246
581.613	25.71294
581.811	25.437
582.008	23.15096
582.205	24.98118
582.402	24.54318
582.6	25.73954
582.797	24.17624
582.994	24.34739
583.191	24.85072
583.388	23.85861
583.586	24.82183
583.783	25.42699
583.98	23.93655
584.177	24.5697
584.374	21.06802
584.571	23.84078
584.768	23.82022
584.965	23.5414
585.162	24.44307
585.359	26.5569
585.556	23.80754
585.753	24.67217
585.95	23.24854
586.147	23.43271
586.344	24.80267
586.541	23.93486
586.738	22.80046
586.935	23.87521
587.132	23.13819
587.329	25.75468
587.526	23.98682
587.722	29.11847
587.919	23.12398
588.116	24.70937
588.313	25.49637
588.51	26.32861
588.706	23.77847
588.903	24.67361
589.1	25.25479
589.297	26.5567
589.493	24.48824
589.69	25.05068
589.887	23.99034
590.083	23.26943
590.28	23.81672
590.477	24.61456
590.673	25.59553
590.87	25.7403
591.067	24.46661
591.263	25.23111
591.46	24.93401
591.656	23.43724
591.853	25.99088
592.049	23.38137
592.246	23.83837
592.442	25.69168
592.639	25.43079
592.835	23.66394
593.032	24.97828
593.228	22.93149
593.425	22.67323
593.621	22.2062
593.817	24.457
594.014	23.46008
594.21	24.51083
594.406	25.44186
594.603	25.04949
594.799	23.53492
594.995	21.70088
595.192	25.44171
595.388	23.40358
595.584	24.52984
595.78	22.65841
595.977	26.73319
596.173	25.88521
596.369	24.24739
596.565	23.24135
596.761	23.29621
596.957	25.81044
597.154	23.78506
597.35	24.53059
597.546	23.66591
597.742	25.91719
597.938	24.76355
598.134	23.67102
598.33	25.00733
598.526	26.28598
598.722	24.70875
598.918	26.49534
599.114	25.17437
599.31	23.5324
599.506	24.57541
599.702	23.49893
599.898	24.65947
600.094	25.06528
600.29	25.00383
600.485	25.5453
600.681	23.702
600.877	26.46819
601.073	24.20323
601.269	26.6988
601.465	25.81208
601.66	23.23235
601.856	22.03884
602.052	26.4425
602.248	23.91288
602.443	22.65834
602.639	23.00345
602.835	23.63618
603.03	22.90473
603.226	25.37964
603.422	23.29574
603.617	23.95486
603.813	24.31936
604.009	24.33228
604.204	25.81303
604.4	23.12267
604.595	25.77823
604.791	23.86267
604.986	25.14925
605.182	24.40083
605.377	24.98366
605.573	24.52434
605.768	24.9514
605.964	25.39501
606.159	25.67306
606.355	26.05806
606.55	24.26649
606.746	26.38251
606.941	24.48456
607.136	27.31739
607.332	28.1968
607.527	22.88661
607.722	24.64143
607.918	24.17726
608.113	23.73336
608.308	25.70949
608.503	25.27666
608.699	25.13615
608.894	25.26033
609.089	23.75456
609.284	24.62951
609.479	24.26018
609.675	25.71694
609.87	24.96503
610.065	26.01121
610.26	26.28752
610.455	25.8372
610.65	24.76819
610.845	25.09363
611.04	26.49247
611.235	24.67646
611.43	24.21402
611.625	23.56111
611.82	27.10639
612.015	23.80106
612.21	26.59403
612.405	23.00002
612.6	27.29628
612.795	26.31239
612.99	25.45258
613.185	23.68903
613.38	23.98901
613.575	25.05565
613.77	29.04289
613.965	22.64523
614.159	23.57093
614.354	27.0428
614.549	26.10596
614.744	26.12714
614.938	23.61017
615.133	22.6873
615.328	27.10624
615.523	25.88376
615.717	28.89417
615.912	23.66258
616.107	25.06935
616.301	24.72682
616.496	24.59365
616.691	27.48233
616.885	26.1099
617.08	29.32317
617.274	26.61526
617.469	28.36597
617.664	26.4695
617.858	24.89811
618.053	26.09418
618.247	24.88312
618.442	21.97528
618.636	27.73705
618.831	24.02777
619.025	24.24055
619.219	29.44135
619.414	21.22256
619.608	25.22012
619.803	25.01494
619.997	28.50902
620.191	26.88547
620.386	26.16408
620.58	24.98512
620.774	22.52204
620.969	22.90758
621.163	25.4395
621.357	23.79185
621.551	24.78257
621.746	25.04051
621.94	24.71436
622.134	30.50634
622.328	28.69049
622.522	22.44292
622.716	26.44455
622.911	26.63858
623.105	27.2496
623.299	25.95038
623.493	30.44796
623.687	24.06468
623.881	24.89818
624.075	25.90558
624.269	26.8037
624.463	22.12153
624.657	22.88535
624.851	25.71394
625.045	26.44352
625.239	26.71798
625.433	24.92148
625.627	27.50297
625.821	24.05647
626.015	24.0616
626.209	25.7096
626.403	23.53122
626.596	26.30418
626.79	26.89309
626.984	23.56676
627.178	26.86487
627.372	26.51554
627.565	26.76205
627.759	24.13079
627.953	24.32298
628.147	26.62441
628.34	26.61432
628.534	28.62655
628.728	25.8195
628.921	27.05265
629.115	26.26387
629.309	27.47429
629.502	27.5753
629.696	25.2839
629.89	25.16524
630.083	25.69489
630.277	26.71743
630.47	28.31306
630.664	25.18091
630.857	23.42904
631.051	26.49836
631.244	27.42887
631.438	26.92665
631.631	24.02297
631.825	28.17158
632.018	26.97531
632.212	28.79032
632.405	27.92303
632.598	24.34781
632.792	25.93741
632.985	21.91126
633.178	25.8327
633.372	25.22383
633.565	25.6464
633.758	28.63895
633.952	24.2238
634.145	24.117
634.338	26.53145
634.531	24.52814
634.724	24.87117
634.918	25.50059
635.111	25.23785
635.304	25.33992
635.497	30.3862
635.69	25.95036
635.883	28.69198
636.077	24.26313
636.27	26.7468
636.463	25.65031
636.656	26.33614
636.849	25.5653
637.042	27.518
637.235	28.23432
637.428	27.51896
637.621	27.80895
637.814	28.28417
638.007	28.667
638.2	28.31938
638.393	29.27737
638.586	23.46916
638.778	26.32325
638.971	25.4733
639.164	28.57434
639.357	26.13405
639.55	29.3764
639.743	28.20031
639.935	26.81603
640.128	30.53081
640.321	27.48602
640.514	26.22243
640.707	30.55583
640.899	27.31575
641.092	22.75448
641.285	42.40196
641.477	21.83253
641.67	31.18952
641.863	29.40218
642.055	26.70043
642.248	25.27338
642.441	25.52971
642.633	27.24068
642.826	28.82308
643.018	28.40816
643.211	30.17538
643.403	30.31134
643.596	31.36367
643.788	29.27911
643.981	26.22435
644.173	29.14079
644.366	26.71948
644.558	22.47337
644.751	28.92655
644.943	23.57514
645.135	30.33618
645.328	30.13269
645.52	27.35468
645.712	29.22086
645.905	33.18014
646.097	23.56279
646.289	26.30214
646.482	32.05015
646.674	25.51502
646.866	30.07006
647.058	27.74123
647.251	24.72398
647.443	25.51488
647.635	26.99512
647.827	23.78137
648.019	25.2123
648.211	26.38239
648.404	26.48272
648.596	30.32662
648.788	26.84166
648.98	27.34924
649.172	27.22985
649.364	27.89408
649.556	23.3376
649.748	33.23871
649.94	25.13781
650.132	27.94325
650.324	24.53259
650.516	25.69968
650.708	29.25414
650.9	23.79855
651.092	25.96256
651.284	24.06357
651.476	24.09932
651.667	29.12052
651.859	29.22246
652.051	27.80832
652.243	26.49543
652.435	26.13201
652.627	28.75755
652.818	27.49524
653.01	23.6418
653.202	24.77847
653.394	25.6756
653.585	28.70431
653.777	37.8178
653.969	29.90136
654.16	29.90724
654.352	24.07706
654.544	25.71702
654.735	28.74116
654.927	27.18853
655.118	30.52023
655.31	27.95094
655.502	31.06767
655.693	25.9943
655.885	29.1375
656.076	29.99444
656.268	27.58898
656.459	30.83528
656.651	30.77311
656.842	25.83534
657.034	25.81038
657.225	29.55151
657.416	30.35818
657.608	30.64821
657.799	27.35118
657.99	30.48941
658.182	26.4532
658.373	26.31281
658.564	29.20288
658.756	28.06353
658.947	27.80272
659.138	25.65734
659.33	26.53055
659.521	26.44083
659.712	27.33184
659.903	27.5247
660.094	26.48447
660.286	24.5244
660.477	31.70095
660.668	29.55694
660.859	27.2604
661.05	24.11053
661.241	29.17907
661.432	28.65455
661.623	27.07801
661.814	26.9605
662.006	24.34074
662.197	28.95189
662.388	30.96846
662.579	28.47343
662.77	30.95459
662.96	35.48163
663.151	29.78522
663.342	23.77826
663.533	30.13022
663.724	28.88972
663.915	33.27295
664.106	27.58387
664.297	33.79751
664.488	30.43181
664.678	25.60461
664.869	30.48105
665.06	32.01888
665.251	29.30866
665.442	29.32554
665.632	26.06844
665.823	32.08589
666.014	20.17626
666.204	30.60102
666.395	31.45118
666.586	36.40532
666.776	29.84131
666.967	33.48926
667.158	29.65012
667.348	31.72506
667.539	25.79847
667.729	30.73628
667.92	25.81752
668.111	31.31017
668.301	29.87951
668.492	28.23781
668.682	29.52823
668.873	28.2388
669.063	24.81887
669.253	29.87076
669.444	30.85581
669.634	27.38238
669.825	35.07376
670.015	31.69942
670.206	25.69728
670.396	34.06824
670.586	27.95072
670.777	30.329
670.967	23.05567
671.157	27.99935
671.347	26.11916
671.538	33.29631
671.728	31.24427
671.918	34.55823
672.108	31.97133
672.299	28.61403
672.489	29.77072
672.679	26.9692
672.869	31.31093
673.059	35.58336
673.249	30.96229
673.44	25.08132
673.63	29.38739
673.82	32.07081
674.01	26.40686
674.2	30.71175
674.39	38.71198
674.58	30.66179
674.77	28.68198
674.96	28.74937
675.15	41.14759
675.34	33.80268
675.53	29.2619
675.72	29.35994
675.91	24.41219
676.099	35.84625
676.289	37.15788
676.479	33.28634
676.669	28.61966
676.859	30.73368
677.049	27.70521
677.238	29.40994
677.428	35.81505
677.618	31.75744
677.808	35.63888
677.997	31.96442
678.187	26.45663
678.377	28.96464
678.567	28.15654
678.756	28.55059
678.946	29.62686
679.136	25.37664
679.325	27.85065
679.515	27.30844
679.704	27.08421
679.894	32.38094
680.084	30.92107
680.273	33.01341
680.463	28.60621
680.652	27.62454
680.842	29.98922
681.031	32.89654
681.221	27.85774
681.41	32.28271
681.6	30.32674
681.789	33.44043
681.978	34.91375
682.168	31.8658
682.357	30.91289
682.547	32.35916
682.736	32.07662
682.925	35.84441
683.115	34.96848
683.304	33.91228
683.493	31.82507
683.682	32.80329
683.872	32.51965
684.061	36.22126
684.25	33.46385
684.439	37.61686
684.629	34.28395
684.818	44.26988
685.007	31.3217
685.196	31.04028
685.385	38.18744
685.574	32.81563
685.763	33.41012
685.952	32.6337
686.142	28.75598
686.331	35.66548
686.52	26.69323
686.709	37.61492
686.898	37.1785
687.087	34.10352
687.276	38.29014
687.465	36.26456
687.654	32.10981
687.842	38.43423
688.031	28.45095
688.22	37.85329
688.409	33.94921
688.598	32.72104
688.787	43.18313
688.976	33.77843
689.165	40.02408
689.353	31.93755
689.542	34.29889
689.731	36.76882
689.92	41.99778
690.108	36.43174
690.297	31.29604
690.486	33.12627
690.675	36.29931
690.863	39.54863
691.052	38.81045
691.241	35.44785
691.429	33.09026
691.618	40.85995
691.806	29.43733
691.995	31.7969
692.184	34.05434
692.372	33.01757
692.561	35.13498
692.749	34.55033
692.938	44.93092
693.126	36.02159
693.315	33.62244
693.503	37.63014
693.692	36.46085
693.88	38.58914
694.068	43.04989
694.257	34.1514
694.445	36.75327
694.634	27.12859
694.822	37.87688
695.01	40.22513
695.199	40.04663
695.387	39.83899
695.575	39.06872
695.763	33.88128
695.952	32.0077
696.14	29.1528
696.328	32.2964
696.516	34.92196
696.705	34.84443
696.893	35.57173
697.081	26.87814
697.269	37.32017
697.457	30.52704
697.645	30.24075
697.833	36.78125
698.021	31.04997
698.21	32.83737
698.398	33.6943
698.586	30.33629
698.774	29.11416
698.962	33.16385
699.15	31.08272
699.338	29.20731
699.526	35.87184
699.714	32.09198
699.901	32.50451
700.089	38.12171
700.277	31.61044
700.465	34.38844
700.653	38.46023
700.841	36.26136
701.029	31.89313
701.217	40.14262
701.404	35.04683
701.592	42.56998
701.78	43.98713
701.968	34.65967
702.155	34.9838
702.343	29.3992
702.531	41.89504
702.718	37.16147
702.906	35.21825
703.094	32.43659
703.281	41.0925
703.469	38.228
703.657	40.66917
703.844	49.68133
704.032	44.41968
704.219	33.30549
704.407	38.50196
704.595	42.3113
704.782	35.37142
704.97	34.37407
705.157	35.05531
705.345	43.47783
705.532	50.94802
705.719	38.92705
705.907	41.86467
706.094	37.49114
706.282	44.54346
706.469	35.55645
706.656	38.20598
706.844	35.07534
707.031	41.44046
707.218	39.38027
707.406	44.08323
707.593	41.11341
707.78	40.7524
707.968	38.26305
708.155	33.99549
708.342	40.76002
708.529	39.58582
708.716	39.56008
708.904	46.04638
709.091	41.13266
709.278	31.28446
709.465	50.48103
709.652	46.50906
709.839	45.46708
710.026	40.23966
710.213	31.04777
710.4	40.88338
710.587	42.28317
710.774	45.70084
710.961	43.36005
711.148	37.64226
711.335	44.86093
711.522	38.42029
711.709	41.30119
711.896	50.92321
712.083	43.94845
712.27	35.19643
712.457	40.88901
712.644	33.43756
712.831	49.87033
713.017	40.61131
713.204	43.43765
713.391	37.18481
713.578	45.49218
713.765	47.86183
713.951	42.8839
714.138	58.69807
714.325	42.72277
714.512	41.22368
714.698	35.85019
714.885	49.35939
715.072	41.24502
715.258	41.99478
715.445	36.93685
715.631	47.9667
715.818	27.9465
716.005	37.87105
716.191	44.32652
716.378	38.9746
716.564	45.873
716.751	37.45411
716.937	38.70675
717.124	47.00037
717.31	36.77612
717.497	50.72619
717.683	37.68828
717.869	55.49976
718.056	38.06114
718.242	44.81044
718.429	40.37887
718.615	33.81401
718.801	42.33055
718.988	47.57178
719.174	45.12029
719.36	42.49833
719.547	48.78367
719.733	42.97037
719.919	44.98881
720.105	48.26583
720.291	40.65663
720.478	42.99362
720.664	42.1244
720.85	39.334
721.036	59.81205
721.222	52.29075
721.408	42.04754
721.595	54.34195
721.781	53.15988
721.967	48.90616
722.153	53.55374
722.339	47.12263
722.525	44.4704
722.711	38.87103
722.897	36.41544
723.083	39.24495
723.269	48.26808
723.455	61.27039
723.641	65.93622
723.827	44.81579
724.012	47.32691
724.198	41.81269
724.384	53.55519
724.57	47.08583
724.756	35.62709
724.942	31.48995
725.127	51.7171
725.313	52.98203
725.499	52.31467
725.685	57.63601
725.87	45.73459
726.056	39.01469
726.242	56.05216
726.428	33.97093
726.613	50.77204
726.799	43.11383
726.985	36.7977
727.17	34.09377
727.356	56.46807
727.541	36.43565
727.727	43.37005
727.913	46.99037
728.098	41.9362
728.284	49.43418
728.469	37.22886
728.655	39.67417
728.84	50.03736
729.026	49.74434
729.211	50.94541
729.397	48.67665
729.582	48.61836
729.767	44.66585
729.953	46.77723
730.138	51.86984
730.323	30.93836
730.509	38.26722
730.694	56.01958
730.879	49.43008
731.065	46.3019
731.25	60.60356
731.435	50.84859
731.621	34.3399
731.806	40.82076
731.991	46.24217
732.176	34.30221
732.361	55.00456
732.547	49.24489
732.732	34.45191
732.917	61.44588
733.102	37.04537
733.287	40.79118
733.472	45.38793
733.657	46.65135
733.842	33.57572
734.027	41.30002
734.212	45.41301
734.397	39.23211
734.582	45.90069
734.767	51.71668
734.952	55.56096
735.137	27.44293
735.322	56.11654
735.507	48.49481
735.692	46.82397
735.877	62.53894
736.062	60.15382
736.247	49.94397
736.431	43.08127
736.616	55.25197
736.801	47.6501
736.986	46.88908
737.171	43.78547
737.355	36.06734
737.54	54.62399
737.725	44.9955
737.909	68.75176
738.094	42.30515
738.279	55.44696
738.463	42.66628
738.648	52.61638
738.833	49.86435
739.017	63.36813
739.202	44.53824
739.386	44.58372
739.571	40.80846
739.756	55.14444
739.94	46.06737
740.125	54.64814
740.309	42.63294
740.494	55.1056
740.678	47.29519
740.863	53.91507
741.047	49.00661
741.231	58.67852
741.416	43.22621
741.6	58.32763
741.785	42.01632
741.969	56.7678
742.153	59.13924
742.338	31.49568
742.522	47.44076
742.706	54.83209
742.89	37.99582
743.075	51.65333
743.259	60.30839
743.443	56.61777
743.627	60.76183
743.812	67.5381
743.996	27.64261
744.18	45.50464
744.364	45.11699
744.548	71.05569
744.732	46.45693
744.916	54.2965
745.1	55.36803
745.285	45.74245
745.469	57.93432
745.653	64.35431
745.837	38.50896
746.021	70.83171
746.205	59.08801
746.389	49.28161
746.573	45.94492
746.757	63.3335
746.94	48.12308
747.124	62.08032
747.308	37.79504
747.492	58.56588
747.676	47.28861
747.86	69.28643
748.044	44.65207
748.227	31.98123
748.411	88.28326
748.595	53.20073
748.779	42.94661
748.963	53.92669
749.146	50.99667
749.33	42.10541
749.514	40.67749
749.697	58.12922
749.881	44.39576
750.065	39.9223
750.248	51.13633
750.432	73.73799
750.616	50.00309
750.799	35.95446
750.983	70.28204
751.166	76.66948
751.35	36.86616
751.533	56.17874
751.717	64.02604
751.9	63.91815
752.084	46.72437
752.267	35.41447
752.451	45.66774
752.634	51.27175
752.818	56.71655
753.001	57.65296
753.184	62.67092
753.368	56.00632
753.551	18.97611
753.734	43.62585
753.918	70.72265
754.101	42.09109
754.284	57.8068
754.467	46.02337
754.651	47.37819
754.834	44.91821
755.017	64.08267
755.2	61.23962
755.384	40.0942
755.567	61.95127
755.75	62.25553
755.933	48.50403
756.116	52.45835
756.299	43.56249
756.482	41.5224
756.665	58.01563
756.848	51.54338
757.032	57.86192
757.215	33.57132
757.398	42.22577
757.581	42.52793
757.764	79.28535
757.947	49.10262
758.129	65.58713
758.312	23.44623
758.495	47.60341
758.678	51.194
758.861	51.45744
759.044	73.59905
759.227	42.84972
759.41	44.64647
759.592	61.76507
759.775	49.43284
759.958	61.98712
760.141	38.7434
760.324	77.94014
760.506	66.26308
760.689	59.93903
760.872	79.77491
761.054	59.08824
761.237	47.06163
761.42	55.0442
761.602	60.37611
761.785	57.94016
761.968	63.68851
762.15	70.67488
762.333	47.89358
762.515	55.0281
762.698	44.97791
762.88	59.15975
763.063	54.02656
763.245	61.40805
763.428	42.4579
763.61	45.42062
763.793	39.3757
763.975	55.05299
764.158	47.83637
764.34	46.30939
764.522	43.22423
764.705	50.19872
764.887	64.80223
765.069	38.33079
765.252	59.73689
765.434	57.38107
765.616	53.34575
765.799	46.82333
765.981	61.53412
766.163	45.93149
766.345	62.35444
766.528	46.81943
766.71	28.57924
766.892	50.89176
767.074	66.90144
767.256	53.0305
767.438	72.67105
767.62	58.32468
767.802	73.84335
767.985	59.92035
768.167	77.61623
768.349	47.75826
768.531	61.18611
768.713	57.22901
768.895	65.91188
769.077	60.55951
769.259	83.886
769.441	115.94959
769.623	61.31229
769.804	81.82896
769.986	72.26702
770.168	88.51151
770.35	94.91098
770.532	77.53913
770.714	81.76704
770.896	83.00516
771.077	43.4643
771.259	86.82368
771.441	73.70684
771.623	95.8171
771.804	112.78389
771.986	37.44186
772.168	59.92276
772.35	89.26425
772.531	112.50484
772.713	72.01643
772.894	98.14233
773.076	71.66183
773.258	64.51365
773.439	97.46466
773.621	110.51161
773.802	57.36862
773.984	70.01008
774.166	74.9486
774.347	105.9151
774.529	90.92967
774.71	38.83879
774.891	68.98866
775.073	64.84843
775.254	102.91407
775.436	61.79634
775.617	114.82319
775.799	62.40886
775.98	101.7982
776.161	107.45037
776.343	106.03836
776.524	73.09003
776.705	65.57079
776.886	39.15396
777.068	72.29049
777.249	129.31148
777.43	116.81475
777.611	49.88881
777.793	71.961
777.974	102.41608
778.155	63.88035
778.336	55.1921
778.517	117.14406
778.698	58.77821
778.879	39.22507
779.061	24.98369
779.242	83.29713
779.423	79.44896
779.604	61.85873
779.785	71.28093
779.966	76.17437
780.147	99.64937
780.328	99.23797
780.509	127.21552
780.69	90.59372
780.871	61.48246
781.051	45.47866
781.232	77.45215
781.413	75.64389
781.594	68.57818
781.775	64.03935
781.956	58.97111
782.137	36.15722
782.317	60.41119
782.498	82.91481
782.679	88.35193
782.86	76.57446
783.04	59.03556
783.221	85.52058
783.402	112.63384
783.583	80.54303
783.763	89.53472
783.944	65.59891
784.124	46.23291
784.305	110.35356
784.486	82.12504
784.666	74.78729
784.847	47.40659
785.027	133.17297
785.208	59.0225
785.388	65.96496
785.569	65.89448
785.749	67.36321
785.93	66.85406
786.11	46.57949
786.291	82.09907
786.471	78.31734
786.652	92.8361
786.832	72.07173
787.012	80.13487
787.193	52.36409
787.373	78.23022
787.553	62.76739
787.734	85.09295
787.914	67.73407
788.094	84.75211
788.275	81.82472
788.455	67.09699
788.635	47.89954
788.815	79.53782
788.995	56.59728
789.176	45.48534
789.356	59.52835
789.536	66.19555
789.716	80.7965
789.896	56.50659
790.076	63.32809
790.256	81.95366
790.436	33.54288
790.616	56.38324
790.796	79.73038
790.976	63.98978
791.156	56.77191
791.336	94.20401
791.516	83.17549
791.696	67.64847
791.876	43.70387
792.056	72.0046
792.236	99.72525
792.416	86.80388
792.596	83.72013
792.776	81.89507
792.956	82.31279
793.135	107.48053
793.315	48.71632
793.495	100.70123
793.675	92.68829
793.854	95.1432
794.034	95.41201
794.214	52.18214
794.394	89.09534
794.573	98.58965
794.753	75.20002
794.933	59.242
795.112	75.60437
795.292	86.31168
795.472	112.50193
795.651	49.50905
795.831	76.62236
796.01	70.70901
796.19	66.81824
796.369	73.99893
796.549	86.96082
796.728	71.62004
796.908	51.84806
797.087	50.77698
797.267	68.06541
797.446	49.6291
797.626	83.07151
797.805	82.74654
797.984	61.95019
798.164	87.50006
798.343	58.22847
798.522	77.15568
798.702	73.15551
798.881	47.59506
799.06	69.17144
799.239	34.72056
799.419	54.7295
799.598	106.89762
799.777	78.80153
799.956	98.93521
800.136	61.76046
800.315	56.30515
800.494	82.62608
800.673	94.23205
800.852	85.13749
801.031	96.3524
801.21	87.86868
801.389	65.2014
801.568	77.93581
801.747	110.39902
801.926	73.46342
802.105	106.25429
802.284	68.39823
802.463	106.75331
802.642	83.65184
802.821	73.33705
803	99.62868
803.179	91.8324
803.358	100.75113
803.537	59.65006
803.716	80.54724
803.895	59.42954
804.073	76.23638
804.252	64.0022
804.431	79.52152
804.61	65.96802
804.789	96.31921
804.967	61.53927
805.146	63.19264
805.325	116.2671
805.503	85.73823
805.682	45.77286
805.861	141.09867
806.039	110.33091
806.218	71.42308
806.397	85.62505
806.575	77.64898
806.754	80.65795
806.932	59.7857
807.111	108.22443
807.289	99.14935
807.468	80.88973
807.646	99.38349
807.825	88.30231
808.003	88.09969
808.182	99.59211
808.36	83.61057
808.539	56.10267
808.717	112.26536
808.895	58.46972
809.074	86.3285
809.252	79.57937
809.43	100.24088
809.609	106.82909
809.787	115.50593
809.965	70.65806
810.144	87.91101
810.322	75.92
810.5	87.03824
810.678	78.71779
810.856	122.69202
811.035	110.62971
811.213	107.69179
811.391	106.09414
811.569	91.66576
811.747	162.42653
811.925	113.89919
812.103	64.43813
812.281	79.28345
812.459	130.50692
812.637	127.20851
812.816	108.88281
812.994	134.95291
813.171	110.43295
813.349	98.11332
813.527	114.92043
813.705	110.91263
813.883	140.15674
814.061	110.20848
814.239	135.88613
814.417	134.17657
814.595	103.33398
814.773	91.94261
814.95	89.60187
815.128	92.64974
815.306	90.47761
815.484	83.49792
815.662	67.62623
815.839	54.11379
816.017	74.84706
816.195	110.95429
816.372	78.2493
816.55	109.7724
816.728	118.75321
816.905	84.2749
817.083	115.15564
817.261	83.75695
817.438	159.58556
817.616	133.91598
817.793	69.17536
817.971	108.34294
818.148	98.17299
818.326	128.64693
818.503	94.84263
818.681	117.67015
818.858	74.87693
819.036	83.74236
819.213	91.06722
819.391	71.30109
819.568	65.89109
819.745	62.78634
819.923	97.97126
820.1	77.24455
820.277	66.78066
820.455	76.32997
820.632	76.93446
820.809	77.87565
820.986	57.05328
821.164	49.70023
821.341	45.37887
821.518	57.72367
821.695	47.5574
821.872	47.34942
822.05	43.05249
822.227	38.99207
822.404	41.0714
822.581	44.21726
822.758	41.75239
822.935	41.68571
823.112	45.52447
823.289	42.20984
823.466	46.22962
823.643	44.98045
823.82	49.82887
823.997	47.49613
824.174	51.07589
824.351	58.96567
824.528	57.67575
824.705	54.12707
824.882	56.39735
825.059	67.85149
825.236	52.75415
825.412	54.61466
825.589	60.90456
825.766	79.80358
825.943	56.75674
826.12	60.0249
826.296	48.20019
826.473	57.49224
826.65	57.12867
826.827	66.2187
827.003	50.64137
827.18	53.84018
827.357	59.25056
827.533	53.44858
827.71	39.88537
827.887	49.80826
828.063	56.44516
828.24	49.65318
828.416	59.6056
828.593	55.23526
828.769	70.26404
828.946	72.6088
829.122	73.75963
829.299	74.47754
829.475	45.79755
829.652	70.34972
829.828	105.21306
830.005	73.52534
830.181	93.73086
830.357	66.00544
830.534	94.77501
830.71	80.28487
830.886	91.10085
831.063	92.01914
831.239	112.30369
831.415	60.45719
831.592	119.40086
831.768	75.07817
831.944	65.55574
832.12	123.31356
832.296	115.45531
832.473	96.02626
832.649	65.0438
832.825	90.84854
833.001	59.60928
833.177	82.57568
833.353	74.23637
833.529	48.9601
833.705	66.31006
833.881	53.90978
834.058	52.89093
834.234	55.9807
834.41	55.94641
834.586	46.25889
834.761	53.64817
834.937	57.50837
835.113	57.94487
835.289	56.13623
835.465	62.68389
835.641	55.55532
835.817	61.55081
835.993	97.1871
836.169	59.00406
836.344	75.20622
836.52	87.93189
836.696	91.37875
836.872	67.72048
837.048	167.19011
837.223	79.05174
837.399	143.88757
837.575	115.37951
837.75	111.07366
837.926	138.37382
838.102	216.78761
838.277	177.5497
838.453	241.525
838.628	237.7733
838.804	89.35834
838.98	229.95612
839.155	108.23141
839.331	152.98415
839.506	110.24454
839.682	112.97164
839.857	130.5598
840.033	145.5964
840.208	74.337
840.384	48.06454
840.559	79.84238
840.734	123.60481
840.91	164.12167
841.085	99.65477
841.26	101.39702
841.436	93.0058
841.611	96.22811
841.786	136.89767
841.962	175.47403
842.137	137.19289
842.312	80.10554
842.487	126.16549
842.663	92.96401
842.838	114.25511
843.013	341.77142
843.188	216.96169
843.363	148.80701
843.538	320.50374
843.714	345.813
843.889	332.79819
844.064	301.07641
844.239	259.85089
844.414	490.90905
844.589	269.59072
844.764	417.54058
844.939	398.01339
845.114	420.65149
845.289	448.19959
845.464	515.07623
845.639	399.87132
845.814	210.38972
845.989	346.65495
846.163	253.84781
846.338	339.7454
846.513	438.4183
846.688	281.63636
846.863	298.58167
847.038	257.41789
847.212	298.5308
847.387	360.10806
847.562	307.58628
847.737	481.52714
847.911	175.36005
848.086	186.90768
848.261	506.99385
848.435	266.41147
848.61	391.95813
848.785	220.50641
848.959	412.44392
849.134	468.64658
849.308	670.3025
849.483	323.00844
849.658	549.62343
849.832	282.14768
850.007	241.62778
850.181	672.91594
850.356	307.97247
850.53	791.09721
850.705	329.26449
850.879	195.92107
851.053	299.3317
851.228	334.15229
851.402	469.82698
851.577	475.08736
851.751	592.49563
851.925	392.1935
852.099	157.61891
852.274	257.39015
852.448	309.91879
852.622	482.87064
852.797	328.22777
852.971	344.64406
853.145	433.58026
853.319	749.65947
853.493	653.75661
853.668	523.50213
853.842	797.80719
854.016	499.1153
854.19	680.5478
854.364	380.70141
854.538	379.69007
854.712	737.76844
854.886	403.24679
855.06	296.02596
855.234	116.02004
855.408	641.09258
855.582	411.21736
855.756	629.11567
855.93	581.07833
856.104	616.29118
856.278	579.16615
856.452	403.89301
856.626	403.08326
856.8	939.11757
856.973	402.27495
857.147	501.88954
857.321	461.73063
857.495	534.40167
857.669	345.69824
857.842	418.18765
858.016	630.20669
858.19	253.49867
858.364	795.52151
858.537	409.7396
858.711	498.9103
858.885	431.33608
859.058	298.132
859.232	125.38526
859.405	162.13707
859.579	511.26524
859.753	524.1137
859.926	221.44321
860.1	189.52179
860.273	394.59355
860.447	512.92644
860.62	374.67443
860.794	629.24691
860.967	367.43986
861.141	492.84211
861.314	785.90332
861.487	483.1151
861.661	470.96056
861.834	519.07963
862.008	696.86278
862.181	457.798
862.354	515.52549
862.528	478.96298
862.701	324.33799
862.874	191.2912
863.047	326.03246
863.221	265.76122
863.394	210.57974
863.567	436.66177
863.74	154.53287
863.913	516.0758
864.087	530.12365
864.26	472.02126
864.433	386.73493
864.606	618.65276
864.779	394.45165
864.952	186.40624
865.125	382.18856
865.298	322.24587
865.471	340.90961
865.644	761.99947
865.817	524.55433
865.99	482.10257
866.163	459.18699
866.336	251.32951
866.509	359.48078
866.682	664.85027
866.855	727.67125
867.028	197.78421
867.2	383.92378
867.373	160.68964
867.546	386.01034
867.719	698.87335
867.892	469.5123
868.064	321.80107
868.237	356.25878
868.41	384.20489
868.583	182.86911
868.755	232.55695
868.928	462.39602
869.101	832.44552
869.273	561.44453
869.446	535.24978
869.619	589.34692
869.791	409.621
869.964	504.06332
870.136	887.73255
870.309	346.03311
870.481	411.04205
870.654	189.9253
870.826	354.79818
870.999	214.26792
871.171	424.09111
871.344	272.21575
871.516	302.27609
871.689	262.54496
871.861	334.45203
872.033	305.72743
872.206	285.50876
872.378	356.79057
872.55	346.39139
872.723	211.57337
872.895	308.20171
873.067	458.00703
873.24	390.49676
873.412	347.54653
873.584	379.10637
873.756	349.29236
873.928	483.62461
874.101	374.79438
874.273	420.8014
874.445	148.88444
874.617	245.50308
874.789	307.77615
874.961	353.66708
875.133	360.97141
875.305	378.61039
875.477	295.84224
875.649	179.1559
875.821	211.12651
875.993	618.41679
876.165	361.8622
876.337	380.59623
876.509	321.24987
876.681	394.25899
876.853	356.69604
877.025	362.96146
877.197	267.65772
877.369	176.19499
877.541	353.69547
877.712	120.59566
877.884	201.56577
878.056	350.83143
878.228	190.79519
878.4	410.83672
878.571	178.24426
878.743	126.72906
878.915	293.42514
879.086	153.09112
879.258	195.32911
879.43	185.52711
879.601	151.58333
879.773	159.43021
879.945	47.41477
880.116	70.9383
880.288	48.14834
880.459	50.04437
880.631	47.06793
880.802	53.3827
880.974	49.35523
881.145	42.03156
881.317	51.23529
881.488	44.12391
881.66	47.40205
881.831	45.50687
882.002	53.17713
882.174	46.52737
882.345	51.6788
882.517	39.76909
882.688	58.87136
882.859	50.77681
883.03	70.6651
883.202	66.41811
883.373	60.13956
883.544	59.4876
883.715	86.32724
883.887	80.0106
884.058	65.15277
884.229	95.21085
884.4	91.44826
884.571	110.86136
884.742	94.62433
884.914	99.19635
885.085	129.95606
885.256	177.54133
885.427	153.1681
885.598	186.88809
885.769	172.26892
885.94	188.02018
886.111	125.31215
886.282	207.7756
886.453	191.65546
886.624	127.05247
886.795	233.19216
886.966	207.09751
887.136	248.89034
887.307	167.25914
887.478	334.1024
887.649	294.38266
887.82	286.48493
887.991	249.54831
888.161	373.76775
888.332	369.12832
888.503	159.91236
888.674	403.05099
888.844	564.51997
889.015	372.68133
889.186	216.82054
889.356	525.57585
889.527	192.92877
889.698	675.19597
889.868	257.77938
890.039	435.62785
890.209	311.14956
890.38	399.69765
890.551	365.96433
890.721	424.26054
890.892	468.84823
891.062	397.95957
891.233	536.43279
891.403	489.73084
891.574	302.19244
891.744	263.87824
891.914	331.39581
892.085	419.96733
892.255	96.89988
892.425	453.05511
892.596	348.19255
892.766	398.09859
892.936	469.20026
893.107	422.28262
893.277	180.85879
893.447	210.17331
893.618	110.83945
893.788	215.51755
893.958	138.98145
894.128	111.47875
894.298	133.53974
894.468	171.26277
894.639	83.81688
894.809	59.19317
894.979	88.92128
895.149	105.92993
895.319	90.88894
895.489	107.8767
895.659	157.6021
895.829	105.23698
895.999	113.46503
896.169	103.13452
896.339	109.79748
896.509	202.39962
896.679	224.63466
896.849	255.8808
897.019	303.51729
897.189	265.28998
897.358	241.12885
897.528	378.47575
897.698	208.05568
897.868	330.45829
898.038	650.78947
898.208	651.36981
898.377	260.72379
898.547	1033.32837
898.717	1417.23834
898.886	445.30402
899.056	665.48092
899.226	1465.7852
899.395	751.18392
899.565	1274.3495
899.735	798.05783
899.904	969.31523
900.074	1039.26615
900.244	287.5543
900.413	1292.73851
900.583	391.487
900.752	1373.7284
900.922	1030.48033
901.091	184.05125
901.261	1808.7212
901.43	536.08274
901.599	2350.27445
901.769	1455.74429
901.938	1089.96842
902.108	1623.42846
902.277	823.67968
902.446	470.21919
902.616	365.3695
902.785	548.5273
902.954	699.87597
903.124	524.10449
903.293	293.30786
903.462	153.36963
903.631	227.32596
903.801	158.97182
903.97	77.69537
904.139	134.24205
904.308	95.32557
904.477	87.7699
904.646	51.88263
904.816	77.85276
904.985	119.345
905.154	174.31146
