Data from WindowProjectSample_Transmission__18__00018__07552753863368814.txt Node

Date: Mon May 05 17:09:25 EDT 2025
User: jessi
Spectrometer: SR400872
Trigger mode: 0
Integration Time (sec): 5.000010E-1
Scans to average: 20
Electric dark correction enabled: true
Nonlinearity correction enabled: true
Boxcar width: 0
XAxis mode: Wavelengths
Number of Pixels in Spectrum: 3648
>>>>>Begin Spectral Data<<<<<
184.909	20802.03502
185.132	-5233.06054
185.355	-3097.11501
185.578	-18004.02647
185.801	1468.43756
186.024	10322.85628
186.247	-1756.97771
186.47	1170.60564
186.693	361.11949
186.916	332.62485
187.139	-3800.8909
187.362	3550.53475
187.585	4415.6882
187.808	3638.55579
188.031	121.60244
188.254	-51547.55114
188.476	-1614.45674
188.699	6322.57552
188.922	702.93647
189.145	-15247.2748
189.368	-579.37801
189.591	-1203.74707
189.813	2935.59282
190.036	-50145.83392
190.259	-864.18797
190.482	-4248.84998
190.705	7105.45404
190.927	-2580.87846
191.15	13325.56441
191.373	3463.16634
191.595	-8902.63781
191.818	-4170.95447
192.041	-4142.62656
192.263	-3543.25198
192.486	-884.58383
192.709	-3915.47506
192.931	8075.30136
193.154	-28129.65514
193.377	-2880.70699
193.599	-2546.95057
193.822	-9686.04408
194.044	-2000.39483
194.267	1023.23793
194.489	304.61457
194.712	-44208.69363
194.934	-32482.21088
195.157	1219.28622
195.379	1406.01073
195.602	-7140.38659
195.824	-1347.13195
196.047	-9221.52695
196.269	2638.01586
196.492	-6430.08241
196.714	29012.24242
196.936	-8294.79038
197.159	-1205.99879
197.381	1164.04957
197.604	495.46361
197.826	12321.18777
198.048	-10283.40911
198.271	-2859.17424
198.493	7751.62846
198.715	2325.51164
198.938	-418.41464
199.16	6641.51728
199.382	-101295.77955
199.604	2544.08531
199.827	-1053.74706
200.049	-2911.27227
200.271	13602.98976
200.493	1179.17422
200.715	-37891.61757
200.938	-6017.82436
201.16	-4218.6006
201.382	20826.38585
201.604	2235.75039
201.826	2365.88414
202.048	-1992.24813
202.27	-1848.04076
202.492	-37355.13479
202.715	2893.40088
202.937	-4485.80404
203.159	-5972.52736
203.381	1477.13711
203.603	6477.99363
203.825	6756.14302
204.047	2190.03219
204.269	-2661.48692
204.491	2287.11613
204.713	5975.15548
204.935	-484665.22526
205.156	1254.72624
205.378	-2933.9547
205.6	1595.03064
205.822	153496.48625
206.044	-1039.92521
206.266	1630.56281
206.488	4537.41176
206.71	-5165.08765
206.932	1104.52109
207.153	11772.82425
207.375	-6682.08499
207.597	-37290.03985
207.819	-2888.61625
208.041	2398.9354
208.262	494.17412
208.484	679.90382
208.706	-856.55407
208.927	-679.88184
209.149	543.83171
209.371	-2858.14729
209.593	-250.10309
209.814	-857.39031
210.036	541.94133
210.258	-596.32421
210.479	1814.39191
210.701	1686.36553
210.922	3399.26301
211.144	-3800.99788
211.366	2108.66447
211.587	7767.95941
211.809	-8434.53915
212.03	2335.17577
212.252	522.15709
212.473	2156.71628
212.695	-5878.27233
212.916	2931.96488
213.138	-689.75624
213.359	3732.27997
213.581	5322.44834
213.802	-801.07586
214.024	1122.23466
214.245	2144.75584
214.466	3520.79493
214.688	-3139.5392
214.909	-1259.38121
215.131	-1760.59736
215.352	-3154.73753
215.573	14644.08212
215.795	5162.08757
216.016	5456.18977
216.237	853.38041
216.459	3740.53478
216.68	1767.79305
216.901	5034.886
217.122	-3170.67015
217.344	-11683.81601
217.565	3465.55164
217.786	8985.1041
218.007	17439.52808
218.228	-745.06524
218.45	5781.36915
218.671	715.05433
218.892	39840.02773
219.113	1610.52856
219.334	-267.74469
219.555	10477.83955
219.776	3124.44664
219.997	22693.01565
220.219	2644.92882
220.44	-11347.23046
220.661	486.60183
220.882	1513.90796
221.103	-1061.00859
221.324	2298.03165
221.545	2339.28887
221.766	-9193.48048
221.987	992.01445
222.208	1589.80334
222.429	4448.2204
222.65	347.97204
222.87	17881.98961
223.091	728.94242
223.312	636.20003
223.533	1335.73074
223.754	1501.59789
223.975	1384.41416
224.196	2023.76529
224.417	1322.78546
224.637	569.31673
224.858	67.11266
225.079	1120.01131
225.3	677.05593
225.521	3785.12343
225.741	435.79483
225.962	509.0935
226.183	149.08315
226.404	673.04578
226.624	421.94636
226.845	646.23617
227.066	409.81931
227.286	249.80349
227.507	127.64214
227.728	119.19195
227.948	233.24736
228.169	74.00498
228.389	83.01847
228.61	47.66864
228.831	64.2196
229.051	0.67136
229.272	38.98
229.492	57.85171
229.713	14.99157
229.933	36.81704
230.154	31.40576
230.374	53.12882
230.595	37.18811
230.815	23.69572
231.036	37.72461
231.256	-10.25045
231.477	67.68564
231.697	36.57903
231.917	40.31649
232.138	55.61029
232.358	114.9853
232.579	102.82399
232.799	18.99449
233.019	102.00757
233.24	109.58823
233.46	37.48526
233.68	68.39918
233.901	43.02036
234.121	23.91602
234.341	12.02884
234.561	-3.96638
234.782	22.22353
235.002	67.48038
235.222	-7.25537
235.442	64.8197
235.662	30.9732
235.883	63.12912
236.103	48.81777
236.323	36.36513
236.543	29.73347
236.763	43.68613
236.983	44.65651
237.203	43.09079
237.423	58.92807
237.643	89.38816
237.864	73.85622
238.084	20.19727
238.304	28.74384
238.524	44.54208
238.744	37.64548
238.964	74.59078
239.184	61.57231
239.404	66.46171
239.624	34.58992
239.843	60.36255
240.063	35.80034
240.283	21.60972
240.503	24.62633
240.723	26.3004
240.943	13.64146
241.163	19.89474
241.383	14.48791
241.603	7.21962
241.822	9.51801
242.042	6.34542
242.262	8.53193
242.482	9.71886
242.702	10.68831
242.921	2.58123
243.141	6.46097
243.361	6.10219
243.581	9.12541
243.8	7.51487
244.02	5.01296
244.24	8.77316
244.459	9.76729
244.679	18.04976
244.899	11.40674
245.118	12.47435
245.338	12.79255
245.558	13.34228
245.777	8.1969
245.997	10.0288
246.216	10.59568
246.436	6.49523
246.655	4.57016
246.875	3.40035
247.094	6.11993
247.314	2.2526
247.533	3.68472
247.753	4.22581
247.972	3.32938
248.192	1.19548
248.411	1.56845
248.631	3.554
248.85	4.65722
249.07	3.7548
249.289	5.84163
249.508	4.81925
249.728	7.47187
249.947	6.78642
250.166	8.90696
250.386	3.987
250.605	7.01075
250.824	11.07194
251.044	7.53243
251.263	28.67434
251.482	14.89496
251.701	11.92823
251.921	-0.16913
252.14	3.45477
252.359	4.21536
252.578	9.90397
252.798	3.51047
253.017	8.7046
253.236	3.97584
253.455	5.78364
253.674	10.28465
253.893	5.10827
254.112	7.82418
254.331	11.35669
254.551	8.88116
254.77	3.60084
254.989	13.45283
255.208	9.72531
255.427	14.39186
255.646	11.82379
255.865	21.75558
256.084	8.69681
256.303	11.14458
256.522	14.20468
256.741	3.46542
256.96	2.67266
257.179	8.00709
257.397	11.24605
257.616	5.77917
257.835	5.82434
258.054	14.87766
258.273	10.89759
258.492	10.73525
258.711	6.56833
258.93	3.15707
259.148	4.81773
259.367	4.57337
259.586	5.62868
259.805	2.40376
260.023	5.33566
260.242	3.89319
260.461	2.84575
260.68	1.31764
260.898	4.48842
261.117	1.50302
261.336	0.86011
261.554	3.47948
261.773	3.44169
261.992	0.6194
262.21	3.65803
262.429	3.69108
262.648	7.44014
262.866	8.09713
263.085	5.8038
263.303	4.77388
263.522	8.70801
263.74	9.14377
263.959	15.56311
264.178	7.11516
264.396	6.0988
264.615	4.48903
264.833	10.11609
265.051	8.9015
265.27	11.10994
265.488	10.7648
265.707	6.47749
265.925	11.21742
266.144	4.47349
266.362	5.51952
266.58	5.60618
266.799	4.63248
267.017	6.3662
267.235	5.38141
267.454	3.28002
267.672	1.6798
267.89	4.0786
268.109	4.35379
268.327	4.43286
268.545	1.08611
268.763	4.12194
268.982	1.2764
269.2	4.16234
269.418	2.99273
269.636	1.85973
269.854	4.70922
270.073	3.04258
270.291	2.01476
270.509	1.83723
270.727	4.52399
270.945	7.37844
271.163	7.24402
271.381	1.51007
271.599	3.0412
271.817	5.48346
272.036	1.8015
272.254	3.11424
272.472	2.40461
272.69	2.69546
272.908	2.29656
273.126	4.68504
273.344	5.33894
273.562	1.76958
273.779	2.72092
273.997	3.79605
274.215	4.11731
274.433	2.94149
274.651	4.4554
274.869	4.74864
275.087	2.84028
275.305	3.8987
275.523	2.53849
275.74	2.74
275.958	5.50509
276.176	8.08777
276.394	2.53048
276.612	3.49176
276.829	3.30262
277.047	2.52918
277.265	3.03357
277.483	3.58482
277.7	4.17288
277.918	3.52142
278.136	6.49404
278.353	2.97401
278.571	1.7976
278.789	4.45862
279.006	0.86513
279.224	2.98722
279.442	5.12465
279.659	3.56088
279.877	2.2532
280.094	5.97615
280.312	1.17022
280.529	3.46556
280.747	1.01716
280.964	2.60681
281.182	6.14576
281.399	2.65574
281.617	3.90477
281.834	2.60132
282.052	1.94474
282.269	3.2206
282.487	2.32382
282.704	2.15155
282.921	2.21407
283.139	3.46689
283.356	3.89951
283.574	3.82786
283.791	1.84941
284.008	5.52988
284.226	2.978
284.443	3.33608
284.66	4.51139
284.877	3.49507
285.095	2.01401
285.312	1.66841
285.529	0.8992
285.746	0.87468
285.964	2.0565
286.181	1.43322
286.398	1.92089
286.615	2.61281
286.832	2.57333
287.05	0.56341
287.267	1.89196
287.484	1.71039
287.701	2.78467
287.918	2.63161
288.135	2.76275
288.352	1.34137
288.569	1.51404
288.786	2.46536
289.003	2.0665
289.22	3.02468
289.437	1.7068
289.654	2.96093
289.871	3.04105
290.088	2.9337
290.305	2.34103
290.522	1.71458
290.739	2.092
290.956	3.22068
291.173	3.53412
291.39	3.41366
291.607	2.43982
291.824	1.75274
292.04	1.26467
292.257	2.88037
292.474	3.35048
292.691	1.95672
292.908	0.86058
293.125	1.81097
293.341	1.13894
293.558	4.89698
293.775	2.03816
293.992	2.17613
294.208	0.81326
294.425	1.42425
294.642	2.00093
294.858	2.84115
295.075	0.74135
295.292	2.03957
295.508	2.52135
295.725	4.25819
295.942	1.99062
296.158	1.58561
296.375	2.4916
296.591	2.00791
296.808	2.18221
297.024	2.59191
297.241	2.76539
297.458	3.10586
297.674	0.8806
297.891	2.53585
298.107	2.40358
298.323	1.99665
298.54	4.09071
298.756	2.30043
298.973	1.65811
299.189	4.27668
299.406	2.44901
299.622	3.9686
299.838	4.09548
300.055	3.8718
300.271	1.91048
300.487	2.38723
300.704	2.81638
300.92	2.27325
301.136	5.83992
301.353	4.13558
301.569	3.47233
301.785	3.8696
302.001	4.22005
302.218	3.84431
302.434	4.19169
302.65	2.62442
302.866	3.25122
303.083	5.92883
303.299	5.86173
303.515	3.93909
303.731	4.33547
303.947	2.67249
304.163	3.35282
304.379	4.08033
304.595	4.39495
304.812	3.37684
305.028	3.43499
305.244	3.87475
305.46	4.77594
305.676	4.8495
305.892	5.47004
306.108	4.7809
306.324	3.95524
306.54	6.10531
306.756	4.78198
306.972	4.66958
307.187	4.34892
307.403	5.46873
307.619	3.68812
307.835	5.385
308.051	5.72994
308.267	3.50933
308.483	5.64194
308.699	4.97757
308.914	4.44704
309.13	4.35115
309.346	3.37563
309.562	3.6864
309.778	3.43853
309.993	5.01087
310.209	4.85559
310.425	3.6781
310.641	4.74692
310.856	3.98717
311.072	3.83676
311.288	4.70134
311.503	5.02633
311.719	3.32249
311.935	3.51977
312.15	5.36541
312.366	4.98001
312.581	5.34584
312.797	5.0155
313.013	5.73339
313.228	4.36383
313.444	4.5203
313.659	4.24973
313.875	5.23527
314.09	4.64575
314.306	5.96702
314.521	5.54154
314.737	5.51995
314.952	4.78963
315.168	4.8875
315.383	5.16015
315.599	4.4306
315.814	4.5331
316.029	5.38211
316.245	3.86082
316.46	3.19592
316.675	5.87431
316.891	6.42147
317.106	7.44695
317.321	5.13415
317.537	5.56787
317.752	5.60754
317.967	5.67338
318.183	4.06995
318.398	4.60054
318.613	5.62424
318.828	6.25778
319.043	5.52945
319.259	4.66379
319.474	4.98924
319.689	5.99249
319.904	3.32463
320.119	5.76119
320.334	5.08291
320.549	4.67979
320.765	5.9557
320.98	5.2985
321.195	5.27645
321.41	5.05386
321.625	5.69232
321.84	6.56782
322.055	6.54537
322.27	4.27495
322.485	3.96688
322.7	5.52413
322.915	5.65542
323.13	4.32876
323.345	6.51315
323.56	6.06396
323.775	5.69347
323.989	5.60106
324.204	5.28931
324.419	6.23944
324.634	4.16224
324.849	5.0636
325.064	8.24935
325.279	6.20309
325.493	5.5508
325.708	6.06085
325.923	4.56511
326.138	4.93068
326.352	6.70538
326.567	6.1076
326.782	4.84493
326.997	4.81068
327.211	5.80512
327.426	5.45483
327.641	5.095
327.855	4.0311
328.07	5.79909
328.285	6.91665
328.499	4.81979
328.714	5.64691
328.928	5.68114
329.143	5.13997
329.358	6.38249
329.572	6.23713
329.787	6.51935
330.001	7.65558
330.216	4.15362
330.43	7.20408
330.645	6.45287
330.859	6.04978
331.074	4.52304
331.288	5.42736
331.503	6.78546
331.717	4.33887
331.931	5.59478
332.146	5.76379
332.36	7.00961
332.575	5.6365
332.789	5.52808
333.003	5.74661
333.218	5.97901
333.432	4.9623
333.646	6.18807
333.86	7.27018
334.075	6.95653
334.289	4.99751
334.503	4.37448
334.717	6.0187
334.932	5.81317
335.146	6.22537
335.36	4.88436
335.574	5.95117
335.788	5.86115
336.003	6.30887
336.217	6.17339
336.431	5.97757
336.645	5.00313
336.859	4.5369
337.073	5.35097
337.287	5.70841
337.501	4.40867
337.715	6.03277
337.929	6.29001
338.143	4.77719
338.357	5.50094
338.571	5.21309
338.785	6.4092
338.999	5.3722
339.213	5.2279
339.427	4.66012
339.641	6.96424
339.855	5.33115
340.069	5.05018
340.283	6.4968
340.497	7.24207
340.711	6.18413
340.924	5.73457
341.138	4.88076
341.352	4.64112
341.566	5.94149
341.78	4.5207
341.993	5.44894
342.207	5.19544
342.421	6.06164
342.635	5.5984
342.848	5.50514
343.062	3.84114
343.276	5.35981
343.49	7.39853
343.703	5.30313
343.917	6.68339
344.131	6.8336
344.344	5.18784
344.558	5.62009
344.771	4.84518
344.985	7.27753
345.199	7.33329
345.412	6.30479
345.626	6.38787
345.839	4.64293
346.053	5.03028
346.266	5.22681
346.48	6.42451
346.693	6.38404
346.907	6.22296
347.12	5.29458
347.334	6.09194
347.547	6.318
347.76	5.88122
347.974	6.96105
348.187	6.03937
348.401	5.80268
348.614	5.11811
348.827	5.71051
349.041	6.40339
349.254	4.45704
349.467	5.56088
349.681	5.00222
349.894	5.17175
350.107	7.04355
350.32	7.6716
350.534	4.99215
350.747	5.70849
350.96	5.42779
351.173	5.44138
351.386	5.7904
351.6	5.52704
351.813	5.68206
352.026	5.72566
352.239	5.13533
352.452	5.69981
352.665	7.0525
352.878	5.95546
353.092	7.8521
353.305	6.7853
353.518	6.40057
353.731	5.27655
353.944	6.95394
354.157	5.89306
354.37	5.73441
354.583	5.37673
354.796	5.09768
355.009	7.01227
355.222	6.53459
355.435	6.38444
355.647	7.17596
355.86	5.70833
356.073	6.50016
356.286	5.94462
356.499	7.14668
356.712	6.96016
356.925	7.01794
357.138	7.19322
357.35	6.08066
357.563	6.28955
357.776	6.82775
357.989	6.73088
358.201	7.18944
358.414	6.99087
358.627	7.92421
358.84	6.59338
359.052	5.90248
359.265	6.20542
359.478	7.46593
359.69	4.92315
359.903	7.37526
360.116	7.6044
360.328	5.77213
360.541	7.59149
360.753	6.48599
360.966	6.74835
361.179	7.04462
361.391	6.82038
361.604	6.80263
361.816	7.03495
362.029	7.1114
362.241	6.81867
362.454	7.1759
362.666	6.70471
362.879	7.95328
363.091	7.14777
363.304	7.13083
363.516	7.23577
363.728	6.66483
363.941	7.75655
364.153	7.49652
364.366	5.96218
364.578	6.64831
364.79	7.54324
365.003	7.58013
365.215	6.93247
365.427	7.85986
365.639	8.17914
365.852	7.44346
366.064	9.04129
366.276	7.41716
366.488	7.80669
366.701	7.31873
366.913	7.35095
367.125	7.45804
367.337	6.96186
367.549	7.36712
367.762	7.69301
367.974	7.66481
368.186	7.42133
368.398	8.42798
368.61	8.08164
368.822	8.32913
369.034	7.51777
369.246	8.43898
369.458	10.16553
369.67	7.26736
369.882	9.05518
370.094	6.52901
370.306	9.05701
370.518	7.98188
370.73	7.70288
370.942	7.6866
371.154	8.25768
371.366	8.06398
371.578	8.67938
371.79	8.22775
372.002	9.26197
372.214	10.25688
372.425	8.44186
372.637	9.82116
372.849	8.89607
373.061	7.34807
373.273	8.89658
373.484	8.88911
373.696	9.27632
373.908	7.29913
374.12	9.52283
374.331	9.08669
374.543	8.27325
374.755	8.28879
374.967	8.88514
375.178	9.61961
375.39	8.75528
375.602	9.17468
375.813	8.0563
376.025	8.7363
376.236	9.44164
376.448	9.51351
376.66	9.32594
376.871	9.33355
377.083	10.36745
377.294	11.04386
377.506	9.36911
377.717	10.82947
377.929	10.13694
378.14	9.79058
378.352	10.21331
378.563	10.51936
378.775	11.10718
378.986	9.42757
379.197	10.27449
379.409	9.5387
379.62	10.54781
379.832	10.45567
380.043	10.00934
380.254	10.46481
380.466	9.56819
380.677	12.51891
380.888	11.71135
381.1	12.45234
381.311	12.51876
381.522	10.91731
381.733	12.59736
381.945	10.81365
382.156	10.60466
382.367	10.54188
382.578	12.94999
382.789	13.04228
383.001	10.51426
383.212	12.35258
383.423	12.25801
383.634	12.03188
383.845	11.96331
384.056	11.32062
384.267	11.55088
384.478	11.5676
384.69	11.03453
384.901	12.16606
385.112	11.9965
385.323	13.21316
385.534	12.28296
385.745	12.31934
385.956	12.25659
386.167	11.61237
386.378	12.62642
386.588	11.89049
386.799	11.84035
387.01	11.31508
387.221	12.95265
387.432	12.51835
387.643	13.68901
387.854	12.44905
388.065	12.41606
388.275	12.71117
388.486	12.31857
388.697	12.70917
388.908	12.54101
389.119	13.71506
389.329	13.8167
389.54	13.0315
389.751	13.20621
389.962	13.99861
390.172	13.17608
390.383	13.28168
390.594	12.79974
390.804	12.98218
391.015	13.04099
391.226	13.85424
391.436	14.12359
391.647	14.17314
391.858	14.16188
392.068	12.97621
392.279	13.43587
392.489	14.29453
392.7	14.83747
392.91	13.89701
393.121	13.78064
393.331	14.65061
393.542	15.04582
393.752	14.92871
393.963	14.77938
394.173	14.68584
394.384	14.93124
394.594	14.83262
394.804	14.14079
395.015	14.93436
395.225	15.35259
395.436	14.4861
395.646	15.26418
395.856	14.75151
396.067	14.18261
396.277	15.72846
396.487	15.35757
396.697	15.50593
396.908	15.44511
397.118	15.49094
397.328	15.24828
397.538	15.92591
397.749	14.8816
397.959	15.9258
398.169	15.70886
398.379	14.73915
398.589	15.87576
398.8	15.93311
399.01	15.84796
399.22	15.63073
399.43	17.23816
399.64	15.86093
399.85	16.32425
400.06	16.17252
400.27	15.59072
400.48	16.13667
400.69	17.10752
400.9	16.00111
401.11	15.50647
401.32	16.61983
401.53	15.99712
401.74	17.39995
401.95	16.59855
402.16	16.09558
402.37	16.54072
402.58	16.11348
402.79	16.77064
403	17.16885
403.209	16.14336
403.419	17.52981
403.629	16.33978
403.839	17.58439
404.049	17.49935
404.258	16.82474
404.468	16.69971
404.678	17.38557
404.888	18.03791
405.097	17.17552
405.307	17.33557
405.517	17.806
405.727	17.71883
405.936	17.34541
406.146	17.64503
406.356	18.32536
406.565	17.6392
406.775	17.52815
406.984	17.51791
407.194	18.81402
407.404	17.71871
407.613	18.12467
407.823	18.21802
408.032	18.60722
408.242	18.48161
408.451	17.56129
408.661	17.76318
408.87	19.07083
409.08	17.36271
409.289	18.18692
409.499	18.24538
409.708	18.11797
409.918	17.05816
410.127	18.37675
410.336	19.24068
410.546	18.81462
410.755	18.13766
410.964	18.25982
411.174	17.94731
411.383	18.94298
411.592	18.78397
411.802	18.07206
412.011	18.97498
412.22	18.48245
412.429	19.72329
412.639	19.59598
412.848	19.23508
413.057	19.53434
413.266	19.50055
413.475	18.95092
413.685	19.22804
413.894	19.47239
414.103	19.58937
414.312	19.43742
414.521	18.80402
414.73	19.19131
414.939	20.34401
415.148	19.54153
415.357	19.32799
415.566	19.07443
415.776	19.00589
415.985	19.22723
416.194	19.89553
416.403	20.55046
416.611	18.72737
416.82	19.33329
417.029	19.66563
417.238	19.40214
417.447	19.30417
417.656	19.65715
417.865	19.35877
418.074	19.76309
418.283	20.00121
418.492	20.5762
418.7	20.42075
418.909	21.73671
419.118	20.82287
419.327	21.46326
419.536	21.56652
419.744	21.92468
419.953	23.51312
420.162	24.24649
420.371	24.00835
420.579	25.36881
420.788	26.22474
420.997	26.50449
421.205	27.51027
421.414	27.2222
421.623	27.71158
421.831	27.23711
422.04	27.76133
422.249	26.64394
422.457	26.74448
422.666	25.34202
422.874	26.21691
423.083	26.13507
423.291	26.24835
423.5	26.32056
423.708	27.16126
423.917	27.71418
424.125	27.45531
424.334	27.54823
424.542	29.38768
424.751	29.05232
424.959	28.54198
425.167	28.23107
425.376	28.14212
425.584	25.99403
425.793	25.56549
426.001	24.37808
426.209	23.66053
426.418	22.13609
426.626	21.42427
426.834	21.22475
427.042	21.6494
427.251	21.27064
427.459	22.04227
427.667	21.69514
427.875	20.88325
428.084	21.22035
428.292	22.06853
428.5	21.78731
428.708	20.94672
428.916	20.92655
429.124	21.4418
429.333	21.19826
429.541	21.36389
429.749	21.50522
429.957	21.47214
430.165	23.22194
430.373	20.92323
430.581	21.77316
430.789	22.36287
430.997	21.47377
431.205	21.11164
431.413	21.7183
431.621	21.48479
431.829	22.09939
432.037	21.39865
432.245	21.82245
432.453	21.96229
432.661	21.59061
432.869	22.86645
433.076	21.4554
433.284	21.85485
433.492	22.3027
433.7	22.76702
433.908	22.07541
434.116	22.28868
434.323	22.40524
434.531	22.1893
434.739	22.55786
434.947	22.7449
435.154	22.68875
435.362	22.36349
435.57	22.13488
435.778	21.90664
435.985	22.39305
436.193	22.03726
436.401	22.89047
436.608	22.11582
436.816	21.80654
437.023	23.0575
437.231	23.00183
437.439	22.44245
437.646	22.5226
437.854	22.41794
438.061	22.68924
438.269	22.09145
438.476	22.67153
438.684	22.27862
438.891	22.14359
439.099	22.03207
439.306	21.90048
439.514	21.98186
439.721	23.3751
439.929	23.38814
440.136	24.54721
440.343	24.98062
440.551	25.19839
440.758	26.8396
440.965	25.41754
441.173	25.22558
441.38	25.31968
441.587	24.28431
441.795	24.18632
442.002	23.32881
442.209	23.22478
442.416	23.18881
442.624	23.16406
442.831	22.92458
443.038	22.55551
443.245	22.22629
443.452	22.48233
443.66	23.10499
443.867	22.31481
444.074	22.23503
444.281	22.29161
444.488	22.51962
444.695	22.60345
444.902	22.43276
445.109	24.15446
445.316	24.52577
445.523	25.59403
445.73	26.3873
445.937	27.81719
446.144	28.5263
446.351	29.52816
446.558	28.40551
446.765	31.23136
446.972	29.57486
447.179	29.53431
447.386	29.84757
447.593	27.51108
447.8	28.35889
448.007	26.15058
448.214	24.89304
448.42	23.98272
448.627	23.76585
448.834	23.21084
449.041	23.13292
449.248	23.10225
449.454	23.61175
449.661	24.11678
449.868	22.97331
450.075	22.86018
450.281	22.27344
450.488	22.55378
450.695	22.50908
450.901	22.47914
451.108	22.70648
451.315	23.41564
451.521	22.76255
451.728	23.51108
451.935	22.58092
452.141	22.97291
452.348	22.96381
452.554	23.01521
452.761	22.86323
452.967	24.13337
453.174	23.18531
453.38	23.51701
453.587	22.69416
453.793	23.36025
454	23.746
454.206	24.35857
454.413	23.82008
454.619	23.49337
454.825	22.90465
455.032	23.46743
455.238	23.82124
455.445	22.76179
455.651	23.37453
455.857	22.38111
456.064	23.07861
456.27	23.05303
456.476	22.994
456.682	22.5561
456.889	23.43071
457.095	23.35426
457.301	24.35801
457.507	23.01606
457.714	23.24863
457.92	23.2335
458.126	22.70008
458.332	22.97348
458.538	22.87925
458.744	22.85391
458.951	22.93764
459.157	25.87263
459.363	25.9668
459.569	26.90567
459.775	27.97839
459.981	28.31993
460.187	29.24554
460.393	29.15595
460.599	29.27638
460.805	27.90716
461.011	26.27064
461.217	25.35022
461.423	24.49197
461.629	23.88275
461.835	24.17652
462.041	23.75341
462.247	24.68936
462.453	23.61909
462.658	23.68503
462.864	23.95435
463.07	23.7442
463.276	23.57642
463.482	23.54949
463.688	24.2468
463.893	23.32727
464.099	23.49472
464.305	24.44708
464.511	23.25371
464.716	23.508
464.922	24.04611
465.128	23.13758
465.333	24.50883
465.539	24.05566
465.745	23.6992
465.95	23.65621
466.156	25.19538
466.362	24.38942
466.567	23.63992
466.773	23.26085
466.978	24.60518
467.184	23.296
467.389	22.69814
467.595	23.95103
467.8	23.48094
468.006	24.61501
468.211	24.47334
468.417	23.30573
468.622	24.24176
468.828	24.29499
469.033	24.21216
469.239	25.4032
469.444	23.5954
469.649	24.36766
469.855	23.89239
470.06	23.90534
470.266	23.35108
470.471	24.27706
470.676	24.12153
470.881	23.12193
471.087	24.70514
471.292	25.33644
471.497	23.37732
471.703	23.9178
471.908	23.61877
472.113	24.02852
472.318	24.47097
472.523	23.32839
472.729	24.18406
472.934	24.26968
473.139	23.79361
473.344	24.19687
473.549	24.69026
473.754	23.86846
473.959	25.47868
474.164	23.65463
474.369	24.08633
474.575	24.50058
474.78	24.08265
474.985	23.5558
475.19	23.0944
475.395	23.62872
475.6	24.08502
475.804	24.83939
476.009	24.00512
476.214	23.90535
476.419	23.96938
476.624	23.20305
476.829	23.56883
477.034	24.50905
477.239	23.72932
477.444	24.4887
477.648	24.40727
477.853	24.43279
478.058	24.11132
478.263	23.87939
478.468	23.54101
478.672	23.72247
478.877	24.9446
479.082	25.04644
479.287	24.32036
479.491	24.29925
479.696	23.8146
479.901	24.49096
480.105	24.58697
480.31	23.79084
480.515	24.22541
480.719	25.17251
480.924	23.70555
481.128	23.5437
481.333	24.19869
481.538	24.15507
481.742	25.16743
481.947	27.00216
482.151	29.13016
482.356	31.46593
482.56	35.81532
482.765	40.2558
482.969	47.31103
483.174	53.53324
483.378	61.41751
483.582	65.4198
483.787	70.03835
483.991	73.0883
484.196	74.67857
484.4	74.55911
484.604	74.9754
484.809	70.72968
485.013	66.48531
485.217	60.61713
485.422	54.18776
485.626	48.9095
485.83	45.17468
486.034	43.11883
486.239	43.12899
486.443	43.92379
486.647	45.01692
486.851	47.14954
487.055	50.42953
487.26	51.75738
487.464	53.9824
487.668	54.50699
487.872	56.37177
488.076	56.22947
488.28	54.89809
488.484	52.31371
488.688	50.64352
488.892	47.91595
489.096	44.36148
489.3	41.20125
489.504	38.25983
489.708	35.76185
489.912	34.33019
490.116	33.24268
490.32	32.87416
490.524	34.7748
490.728	36.72334
490.932	39.18238
491.136	41.77497
491.34	44.19987
491.544	45.42771
491.748	46.54989
491.951	46.96174
492.155	46.50009
492.359	45.41842
492.563	42.62717
492.767	40.33611
492.97	36.45996
493.174	32.65336
493.378	29.60382
493.582	26.54856
493.785	25.03298
493.989	25.01354
494.193	24.7947
494.396	24.58702
494.6	25.03339
494.804	24.44791
495.007	24.31218
495.211	24.44277
495.414	24.41759
495.618	24.62891
495.822	25.04953
496.025	24.61215
496.229	24.90832
496.432	24.35946
496.636	24.86464
496.839	24.66819
497.043	25.52896
497.246	25.00038
497.45	24.92372
497.653	25.18613
497.856	25.20298
498.06	24.7716
498.263	24.94704
498.467	24.91261
498.67	25.43704
498.873	25.21254
499.077	24.992
499.28	24.90787
499.483	25.17832
499.686	25.32435
499.89	25.17285
500.093	25.45182
500.296	24.66811
500.499	25.76484
500.703	24.96563
500.906	25.167
501.109	25.84577
501.312	24.99066
501.515	24.92007
501.719	25.23505
501.922	25.54984
502.125	25.20353
502.328	25.01431
502.531	24.46666
502.734	25.00372
502.937	24.17167
503.14	25.08352
503.343	24.61567
503.546	24.89877
503.749	24.64795
503.952	25.51804
504.155	24.75674
504.358	25.21838
504.561	25.19949
504.764	24.48465
504.967	25.1966
505.17	25.07174
505.373	25.91356
505.576	25.16679
505.778	25.62868
505.981	24.67817
506.184	25.67502
506.387	24.3249
506.59	26.06565
506.793	25.62915
506.995	25.27524
507.198	24.2704
507.401	25.47472
507.604	25.41513
507.806	24.68114
508.009	24.73975
508.212	25.62406
508.414	24.86396
508.617	24.95722
508.82	25.29874
509.022	26.06361
509.225	25.47805
509.427	24.64601
509.63	26.00729
509.833	25.39293
510.035	25.21113
510.238	24.65029
510.44	25.98792
510.643	24.53587
510.845	26.32087
511.048	25.54608
511.25	24.9998
511.453	25.26499
511.655	25.53547
511.858	25.11793
512.06	25.76498
512.262	25.46306
512.465	25.79947
512.667	25.08282
512.869	24.80897
513.072	25.65134
513.274	25.92696
513.476	25.73077
513.679	25.91293
513.881	25.02221
514.083	26.26851
514.286	25.13
514.488	25.23439
514.69	24.9268
514.892	24.68442
515.094	25.78324
515.297	25.10691
515.499	25.32249
515.701	25.09776
515.903	26.20997
516.105	26.22185
516.307	25.61998
516.509	24.48134
516.711	24.64131
516.913	25.25255
517.116	25.22474
517.318	24.90618
517.52	25.67072
517.722	25.67187
517.924	24.81723
518.126	25.69674
518.328	25.49282
518.529	26.6213
518.731	27.51239
518.933	26.09762
519.135	26.38789
519.337	26.90706
519.539	26.068
519.741	25.17884
519.943	25.59016
520.145	25.56114
520.346	26.07252
520.548	25.42521
520.75	25.77048
520.952	25.43572
521.153	25.84447
521.355	25.89538
521.557	25.30656
521.759	25.66714
521.96	25.59503
522.162	25.10752
522.364	26.13056
522.565	25.33342
522.767	25.76423
522.969	26.08496
523.17	25.685
523.372	25.65406
523.573	25.255
523.775	25.32668
523.977	24.94377
524.178	26.20304
524.38	25.00079
524.581	25.60352
524.783	25.24378
524.984	25.74167
525.186	25.68977
525.387	26.88393
525.589	27.24012
525.79	28.08256
525.991	28.45949
526.193	29.30013
526.394	29.17265
526.596	30.11614
526.797	30.87207
526.998	30.53767
527.2	32.0335
527.401	35.5717
527.602	38.48109
527.803	43.76043
528.005	47.5654
528.206	51.59632
528.407	54.57581
528.608	56.54949
528.81	57.74795
529.011	57.92531
529.212	59.0285
529.413	56.85953
529.614	53.8349
529.815	50.14962
530.017	45.95293
530.218	40.87839
530.419	36.78886
530.62	34.66767
530.821	32.33526
531.022	29.9357
531.223	30.09059
531.424	29.24355
531.625	29.34662
531.826	28.96808
532.027	30.04769
532.228	32.27125
532.429	33.53072
532.63	35.14475
532.831	37.41918
533.032	38.46044
533.233	39.89838
533.433	39.88154
533.634	40.46382
533.835	39.69808
534.036	38.46571
534.237	37.01506
534.438	34.69084
534.638	31.93767
534.839	29.61756
535.04	28.14649
535.241	26.64353
535.441	27.03644
535.642	26.706
535.843	26.78143
536.043	27.32315
536.244	27.83617
536.445	28.58677
536.645	29.48171
536.846	29.39782
537.047	29.68081
537.247	28.53912
537.448	27.7603
537.648	26.8976
537.849	26.25693
538.049	26.17957
538.25	26.58968
538.451	26.38176
538.651	25.49984
538.851	26.06054
539.052	26.48148
539.252	26.1067
539.453	25.58636
539.653	25.69322
539.854	25.49098
540.054	25.705
540.254	28.98071
540.455	32.12013
540.655	34.11101
540.855	37.92765
541.056	40.47455
541.256	41.59287
541.456	43.52641
541.657	44.20047
541.857	44.73992
542.057	43.33149
542.257	42.22056
542.458	41.12417
542.658	39.0086
542.858	35.68405
543.058	33.84226
543.258	32.16185
543.458	29.59255
543.659	28.47226
543.859	28.23971
544.059	27.32608
544.259	26.30941
544.459	26.71503
544.659	26.04216
544.859	26.38221
545.059	25.93674
545.259	26.42759
545.459	26.16891
545.659	26.43178
545.859	26.07871
546.059	26.26561
546.259	25.74622
546.459	25.49375
546.659	25.77601
546.859	26.65329
547.059	26.53814
547.258	26.5998
547.458	26.7332
547.658	25.93943
547.858	25.98016
548.058	26.57705
548.258	26.22618
548.457	25.85555
548.657	27.57522
548.857	26.06325
549.057	26.79852
549.256	26.49083
549.456	25.90024
549.656	25.09066
549.855	27.2546
550.055	26.05958
550.255	27.00775
550.454	26.23618
550.654	26.64777
550.853	27.02149
551.053	26.60417
551.253	26.16988
551.452	26.38637
551.652	25.43481
551.851	25.17402
552.051	25.93163
552.25	25.91303
552.45	25.79609
552.649	25.93701
552.849	25.67601
553.048	26.32169
553.248	26.89217
553.447	25.78601
553.646	26.97475
553.846	27.91758
554.045	27.24058
554.244	25.53587
554.444	27.21526
554.643	25.74311
554.842	27.13353
555.042	27.52402
555.241	25.8867
555.44	25.42731
555.64	26.65863
555.839	27.28422
556.038	26.61089
556.237	25.78518
556.436	26.31963
556.636	26.5241
556.835	25.74158
557.034	27.05872
557.233	26.11855
557.432	25.24608
557.631	26.7903
557.83	26.03154
558.029	25.97618
558.228	25.63086
558.427	25.56259
558.626	26.48449
558.825	25.37572
559.024	25.92213
559.223	27.45517
559.422	25.85186
559.621	26.39143
559.82	24.74509
560.019	26.12878
560.218	25.82162
560.417	24.6161
560.616	25.6826
560.815	28.1444
561.014	25.21539
561.212	27.10608
561.411	26.19205
561.61	25.54271
561.809	25.94881
562.008	27.35777
562.206	26.01435
562.405	26.67846
562.604	26.24884
562.803	26.3787
563.001	25.94783
563.2	25.28015
563.399	26.43739
563.597	25.5952
563.796	26.13498
563.995	25.48362
564.193	26.67323
564.392	25.94578
564.59	27.55105
564.789	24.79219
564.988	25.93501
565.186	26.18734
565.385	26.14995
565.583	25.81197
565.782	26.1569
565.98	26.16038
566.179	26.18907
566.377	25.69281
566.575	25.92898
566.774	27.37392
566.972	26.98991
567.171	27.78364
567.369	27.3503
567.567	26.59155
567.766	26.70474
567.964	25.24395
568.162	26.94988
568.361	27.35373
568.559	26.12534
568.757	26.52033
568.956	26.27136
569.154	26.54418
569.352	26.65764
569.55	26.17923
569.748	26.24126
569.947	25.72397
570.145	25.63644
570.343	25.68519
570.541	27.29276
570.739	25.3659
570.937	26.24992
571.135	26.51924
571.333	27.83764
571.532	27.59036
571.73	26.43686
571.928	27.01967
572.126	26.79765
572.324	26.2634
572.522	27.45172
572.72	28.46819
572.918	26.66208
573.116	26.96902
573.313	26.46603
573.511	26.43526
573.709	26.14547
573.907	27.17284
574.105	26.34046
574.303	25.46096
574.501	25.56488
574.699	26.8829
574.896	26.74512
575.094	26.89461
575.292	25.51325
575.49	27.17734
575.688	26.4858
575.885	27.52823
576.083	28.30776
576.281	26.90533
576.478	26.16479
576.676	27.07704
576.874	25.68244
577.071	26.25807
577.269	28.24502
577.467	26.53287
577.664	26.3525
577.862	27.11722
578.059	25.92741
578.257	27.17149
578.455	26.26194
578.652	26.58509
578.85	25.17588
579.047	26.55085
579.245	26.33402
579.442	26.34051
579.64	26.31209
579.837	25.09304
580.034	28.53131
580.232	26.2954
580.429	25.47006
580.627	26.93076
580.824	27.48393
581.021	26.9465
581.219	25.83114
581.416	25.91397
581.613	27.57407
581.811	27.72556
582.008	26.00617
582.205	27.07169
582.402	26.79094
582.6	28.38482
582.797	26.44763
582.994	26.95276
583.191	27.07329
583.388	26.30421
583.586	27.03663
583.783	27.34077
583.98	25.74075
584.177	26.5606
584.374	24.47871
584.571	26.13164
584.768	26.16839
584.965	26.06399
585.162	27.18148
585.359	27.86603
585.556	26.36394
585.753	26.76466
585.95	25.48119
586.147	25.63864
586.344	26.92516
586.541	26.42255
586.738	25.58649
586.935	26.2689
587.132	25.89242
587.329	27.35583
587.526	26.36236
587.722	30.59937
587.919	25.43916
588.116	26.78953
588.313	27.84395
588.51	28.09808
588.706	26.32908
588.903	26.88409
589.1	27.31422
589.297	28.91394
589.493	26.67649
589.69	27.00789
589.887	26.07901
590.083	25.85136
590.28	26.3201
590.477	27.50798
590.673	27.1568
590.87	27.78724
591.067	26.27812
591.263	26.97197
591.46	27.08142
591.656	26.42114
591.853	28.03
592.049	25.98445
592.246	26.13213
592.442	27.61336
592.639	27.7091
592.835	25.69218
593.032	27.02923
593.228	25.31734
593.425	25.57436
593.621	25.29097
593.817	27.02269
594.014	25.84788
594.21	26.84768
594.406	27.49429
594.603	27.09491
594.799	26.01602
594.995	24.86189
595.192	27.69252
595.388	26.36155
595.584	26.3137
595.78	25.59046
595.977	28.78999
596.173	28.00699
596.369	26.34339
596.565	25.9193
596.761	25.63664
596.957	27.9117
597.154	26.42611
597.35	26.55283
597.546	26.48478
597.742	27.56957
597.938	27.43701
598.134	26.43835
598.33	27.33981
598.526	28.21901
598.722	27.13031
598.918	28.26444
599.114	27.22652
599.31	25.61055
599.506	26.5829
599.702	26.07562
599.898	26.6005
600.094	27.18503
600.29	27.35216
600.485	27.3137
600.681	26.02101
600.877	28.34065
601.073	26.53661
601.269	28.39396
601.465	27.82329
601.66	25.7014
601.856	24.97883
602.052	28.59358
602.248	26.41526
602.443	25.04033
602.639	25.51334
602.835	25.94292
603.03	25.7885
603.226	27.67738
603.422	26.10365
603.617	26.51374
603.813	26.53655
604.009	26.60225
604.204	27.8109
604.4	25.79684
604.595	27.65918
604.791	26.02275
604.986	27.30136
605.182	26.47254
605.377	26.95799
605.573	26.78783
605.768	27.11298
605.964	27.59242
606.159	27.74025
606.355	27.75792
606.55	26.55602
606.746	27.64733
606.941	26.58426
607.136	28.61573
607.332	29.50193
607.527	25.63312
607.722	27.08303
607.918	26.65375
608.113	26.02118
608.308	27.60248
608.503	27.22197
608.699	27.21931
608.894	27.33041
609.089	26.22886
609.284	27.3134
609.479	26.57265
609.675	27.57757
609.87	26.82475
610.065	27.83457
610.26	28.17062
610.455	27.92131
610.65	27.27304
610.845	27.52751
611.04	28.15093
611.235	27.20521
611.43	27.10783
611.625	26.20353
611.82	28.67864
612.015	26.56257
612.21	28.82366
612.405	25.70309
612.6	28.80928
612.795	28.49038
612.99	27.49336
613.185	26.09825
613.38	26.32473
613.575	26.8902
613.77	30.05975
613.965	25.52773
614.159	26.40159
614.354	28.39494
614.549	28.23094
614.744	27.61856
614.938	25.8129
615.133	25.44164
615.328	28.60719
615.523	28.41005
615.717	30.276
615.912	26.36698
616.107	27.11308
616.301	26.63353
616.496	26.21574
616.691	28.58829
616.885	27.67644
617.08	30.60287
617.274	28.28035
617.469	29.13239
617.664	28.07838
617.858	26.42433
618.053	27.39858
618.247	26.74642
618.442	24.64081
618.636	28.95302
618.831	26.36868
619.025	26.43119
619.219	30.30421
619.414	23.63064
619.608	26.75366
619.803	26.42348
619.997	29.61171
620.191	28.2011
620.386	27.50043
620.58	27.10625
620.774	25.09139
620.969	25.45584
621.163	27.22597
621.357	26.26208
621.551	26.59015
621.746	27.20418
621.94	26.89087
622.134	30.94404
622.328	29.73372
622.522	25.64339
622.716	28.42077
622.911	28.55859
623.105	28.38584
623.299	27.8393
623.493	30.78941
623.687	26.35539
623.881	26.54014
624.075	27.99534
624.269	28.45338
624.463	25.12327
624.657	25.35703
624.851	27.88516
625.045	28.2262
625.239	28.48203
625.433	27.09372
625.627	29.16919
625.821	26.78782
626.015	26.76153
626.209	27.82635
626.403	25.86145
626.596	28.16792
626.79	28.43292
626.984	26.26885
627.178	28.33207
627.372	28.39153
627.565	28.60633
627.759	26.21661
627.953	26.58744
628.147	28.12526
628.34	28.42423
628.534	30.30103
628.728	27.13853
628.921	28.60295
629.115	28.17126
629.309	28.64704
629.502	28.74017
629.696	27.6272
629.89	27.36006
630.083	28.11637
630.277	27.90631
630.47	29.28572
630.664	26.83004
630.857	25.71329
631.051	28.46154
631.244	28.79741
631.438	28.39707
631.631	26.44763
631.825	29.3404
632.018	28.08091
632.212	29.94366
632.405	28.78313
632.598	26.39684
632.792	27.21214
632.985	24.96407
633.178	27.2372
633.372	27.35937
633.565	27.05792
633.758	29.15134
633.952	26.47252
634.145	26.40117
634.338	27.28009
634.531	27.04757
634.724	26.71644
634.918	27.95868
635.111	27.43175
635.304	27.40546
635.497	30.68678
635.69	28.1073
635.883	29.19866
636.077	26.58321
636.27	28.40789
636.463	27.90871
636.656	27.99539
636.849	27.42062
637.042	28.27767
637.235	30.26955
637.428	28.83023
637.621	28.2067
637.814	29.49448
638.007	29.50083
638.2	29.52268
638.393	30.2225
638.586	25.61805
638.778	27.21047
638.971	27.55737
639.164	29.99276
639.357	28.12204
639.55	30.0935
639.743	28.83378
639.935	28.67922
640.128	31.24885
640.321	29.09318
640.514	27.78749
640.707	31.21327
640.899	28.53925
641.092	25.50435
641.285	43.36206
641.477	24.84259
641.67	31.83224
641.863	29.99391
642.055	28.06633
642.248	27.64282
642.441	27.44519
642.633	28.89214
642.826	29.05278
643.018	29.88519
643.211	31.0189
643.403	31.05277
643.596	31.69295
643.788	30.73919
643.981	27.44837
644.173	29.29449
644.366	27.81973
644.558	25.3687
644.751	29.4114
644.943	26.01812
645.135	30.35332
645.328	30.83505
645.52	29.09551
645.712	30.22072
645.905	32.69588
646.097	26.05632
646.289	28.38629
646.482	31.97889
646.674	26.78348
646.866	30.43625
647.058	29.18421
647.251	26.54266
647.443	27.28826
647.635	28.28039
647.827	26.39715
648.019	27.00977
648.211	28.00895
648.404	28.3807
648.596	31.10329
648.788	28.32691
648.98	28.63548
649.172	29.32052
649.364	28.98322
649.556	25.92123
649.748	33.10406
649.94	27.3535
650.132	29.55053
650.324	27.45459
650.516	27.7619
650.708	30.42421
650.9	26.61283
651.092	26.23277
651.284	26.84016
651.476	27.40392
651.667	30.30682
651.859	31.17241
652.051	28.6908
652.243	29.19595
652.435	27.90087
652.627	29.76593
652.818	29.81886
653.01	26.28444
653.202	27.27001
653.394	27.75109
653.585	29.92419
653.777	36.26148
653.969	31.51717
654.16	30.87772
654.352	26.89008
654.544	28.91591
654.735	30.53859
654.927	29.46979
655.118	31.65954
655.31	29.77112
655.502	31.10495
655.693	28.43811
655.885	30.05032
656.076	31.46337
656.268	29.43757
656.459	31.57803
656.651	31.30363
656.842	28.193
657.034	27.89681
657.225	30.715
657.416	31.63215
657.608	31.64394
657.799	29.15736
657.99	31.82636
658.182	28.4839
658.373	28.33754
658.564	31.48567
658.756	30.47476
658.947	29.62252
659.138	28.43305
659.33	29.30544
659.521	28.73278
659.712	29.92751
659.903	29.88152
660.094	29.15203
660.286	27.66981
660.477	32.85302
660.668	30.90934
660.859	29.70186
661.05	27.13146
661.241	30.42012
661.432	30.05563
661.623	29.04307
661.814	28.97063
662.006	27.18681
662.197	29.86961
662.388	32.01974
662.579	29.86913
662.77	31.41695
662.96	34.85394
663.151	31.41972
663.342	26.11242
663.533	30.63836
663.724	29.32143
663.915	33.48357
664.106	29.69634
664.297	33.11983
664.488	30.84701
664.678	27.98336
664.869	31.14974
665.06	31.45674
665.251	29.71135
665.442	30.583
665.632	27.60567
665.823	33.57297
666.014	24.37362
666.204	31.09891
666.395	32.63921
666.586	34.27209
666.776	30.92588
666.967	33.98303
667.158	29.79329
667.348	32.71351
667.539	28.07633
667.729	31.95802
667.92	28.72685
668.111	31.85674
668.301	31.54092
668.492	30.07596
668.682	31.19438
668.873	30.22403
669.063	28.18251
669.253	30.97236
669.444	33.28942
669.634	30.58066
669.825	34.28009
670.015	33.26107
670.206	28.84254
670.396	34.04464
670.586	30.13064
670.777	31.31946
670.967	26.47
671.157	29.67953
671.347	29.37808
671.538	33.62574
671.728	31.41049
671.918	34.62235
672.108	32.38882
672.299	29.88672
672.489	30.92186
672.679	29.23477
672.869	31.58777
673.059	35.59216
673.249	31.87158
673.44	28.19327
673.63	30.35164
673.82	32.42515
674.01	28.71119
674.2	31.41132
674.39	36.28191
674.58	32.47542
674.77	31.02963
674.96	30.08957
675.15	39.44003
675.34	33.12679
675.53	30.94957
675.72	30.11999
675.91	27.26208
676.099	35.73572
676.289	36.03872
676.479	33.27817
676.669	29.94279
676.859	32.04152
677.049	29.56457
677.238	30.96478
677.428	35.06205
677.618	32.45767
677.808	35.63651
677.997	32.36032
678.187	29.38741
678.377	30.99336
678.567	30.22027
678.756	30.29302
678.946	31.39386
679.136	28.72104
679.325	30.498
679.515	29.8259
679.704	29.49297
679.894	33.91985
680.084	32.77182
680.273	34.69696
680.463	30.7799
680.652	30.57989
680.842	32.03671
681.031	34.17519
681.221	30.51134
681.41	33.52031
681.6	31.73678
681.789	33.80115
681.978	34.48799
682.168	32.57578
682.357	32.33342
682.547	33.21503
682.736	32.53405
682.925	35.33131
683.115	35.03361
683.304	33.91224
683.493	32.69626
683.682	33.27397
683.872	33.61375
684.061	34.56279
684.25	33.3107
684.439	37.10651
684.629	34.84109
684.818	40.74484
685.007	32.57194
685.196	32.18877
685.385	37.19837
685.574	33.32243
685.763	33.60089
685.952	33.43823
686.142	29.98283
686.331	36.3872
686.52	28.86595
686.709	37.95283
686.898	36.97098
687.087	34.76875
687.276	37.14804
687.465	35.94426
687.654	32.73449
687.842	37.18153
688.031	31.0207
688.22	37.00006
688.409	33.75012
688.598	33.97639
688.787	39.77768
688.976	33.65261
689.165	38.65912
689.353	32.45717
689.542	34.76415
689.731	36.23554
689.92	39.33753
690.108	35.09159
690.297	32.74633
690.486	33.85183
690.675	35.558
690.863	37.97728
691.052	38.31357
691.241	34.90886
691.429	34.99304
691.618	37.75601
691.806	31.0468
691.995	33.16866
692.184	34.74039
692.372	33.55342
692.561	35.04101
692.749	34.61449
692.938	43.66511
693.126	35.7773
693.315	33.35524
693.503	36.37638
693.692	37.42055
693.88	36.88041
694.068	39.84376
694.257	34.49002
694.445	36.56154
694.634	29.51725
694.822	36.96101
695.01	38.47144
695.199	39.84392
695.387	38.45698
695.575	37.72419
695.763	34.14806
695.952	33.37834
696.14	30.95377
696.328	33.4281
696.516	34.90291
696.705	35.83786
696.893	35.44313
697.081	30.15956
697.269	37.18707
697.457	32.0539
697.645	31.34185
697.833	37.2412
698.021	33.20162
698.21	34.02975
698.398	34.89264
698.586	32.26658
698.774	31.93844
698.962	34.98891
699.15	33.17652
699.338	31.62904
699.526	36.82671
699.714	33.89512
699.901	34.20918
700.089	37.32295
700.277	33.56393
700.465	34.93358
700.653	37.10296
700.841	35.94196
701.029	33.15245
701.217	39.05673
701.404	35.23323
701.592	40.37221
701.78	41.84212
701.968	35.10768
702.155	35.0307
702.343	31.72967
702.531	38.66646
702.718	36.75801
702.906	33.5196
703.094	34.02645
703.281	39.31985
703.469	35.53374
703.657	38.81176
703.844	45.59745
704.032	42.03558
704.219	34.62439
704.407	37.79836
704.595	40.91856
704.782	37.6383
704.97	36.55834
705.157	35.71954
705.345	43.21442
705.532	49.21004
705.719	40.45843
705.907	43.73319
706.094	39.85406
706.282	47.36343
706.469	40.09503
706.656	41.54725
706.844	39.56737
707.031	45.66667
707.218	43.18085
707.406	47.09107
707.593	44.84395
707.78	45.15567
707.968	43.27818
708.155	40.63649
708.342	45.02906
708.529	45.10428
708.716	44.30947
708.904	48.48876
709.091	45.9298
709.278	39.9871
709.465	50.76359
709.652	48.20238
709.839	47.08432
710.026	42.79748
710.213	36.97371
710.4	42.83181
710.587	44.09183
710.774	45.36286
710.961	46.30903
711.148	42.64736
711.335	45.02377
711.522	41.97748
711.709	44.34228
711.896	50.21496
712.083	46.41497
712.27	40.40451
712.457	43.58907
712.644	38.21089
712.831	50.17961
713.017	43.45267
713.204	45.42573
713.391	40.44541
713.578	46.12319
713.765	47.17865
713.951	43.23448
714.138	52.76571
714.325	42.17238
714.512	41.3106
714.698	38.1428
714.885	45.30998
715.072	40.75666
715.258	39.72282
715.445	37.59414
715.631	44.39429
715.818	30.87472
716.005	37.88291
716.191	42.03282
716.378	38.56188
716.564	43.34818
716.751	36.5082
716.937	37.81806
717.124	42.79424
717.31	36.27643
717.497	47.39024
717.683	37.21564
717.869	47.78106
718.056	37.48563
718.242	41.49757
718.429	38.76329
718.615	35.32942
718.801	39.7412
718.988	43.85026
719.174	41.27978
719.36	38.70746
719.547	44.74907
719.733	40.16525
719.919	40.354
720.105	41.59256
720.291	38.74995
720.478	40.36359
720.664	40.27989
720.85	37.68831
721.036	51.10328
721.222	46.97419
721.408	39.60795
721.595	47.69127
721.781	46.85609
721.967	44.38506
722.153	47.06551
722.339	42.92836
722.525	41.2575
722.711	36.12395
722.897	35.648
723.083	38.75488
723.269	44.56777
723.455	53.08004
723.641	57.55681
723.827	41.28905
724.012	42.68162
724.198	39.49328
724.384	46.78959
724.57	43.34015
724.756	35.00051
724.942	33.19599
725.127	45.61691
725.313	46.40721
725.499	45.61277
725.685	49.30789
725.87	43.68376
726.056	37.19994
726.242	47.31589
726.428	34.9131
726.613	45.325
726.799	39.26198
726.985	36.90223
727.17	34.62714
727.356	50.20345
727.541	37.44404
727.727	40.42629
727.913	45.01994
728.098	39.25946
728.284	44.11716
728.469	36.91286
728.655	38.96698
728.84	46.38573
729.026	45.97262
729.211	45.02421
729.397	44.04276
729.582	46.02814
729.767	42.03438
729.953	43.65525
730.138	48.03888
730.323	32.98132
730.509	37.29505
730.694	50.90664
730.879	46.02566
731.065	43.0382
731.25	53.57511
731.435	45.42171
731.621	36.19606
731.806	39.30903
731.991	42.78951
732.176	35.77896
732.361	49.72107
732.547	43.25001
732.732	35.83517
732.917	53.89957
733.102	37.7575
733.287	39.69675
733.472	42.11162
733.657	42.06697
733.842	35.82704
734.027	39.66114
734.212	42.1051
734.397	39.26723
734.582	43.15661
734.767	47.33123
734.952	50.11385
735.137	31.84906
735.322	50.13191
735.507	45.2375
735.692	43.39394
735.877	53.22579
736.062	52.29816
736.247	45.24614
736.431	41.29697
736.616	48.3538
736.801	44.20999
736.986	43.01182
737.171	37.7128
737.355	36.83683
737.54	49.59556
737.725	43.69474
737.909	57.10008
738.094	40.25612
738.279	47.91825
738.463	41.22445
738.648	46.5988
738.833	46.13629
739.017	53.87014
739.202	42.69972
739.386	41.08229
739.571	37.91931
739.756	47.55364
739.94	42.8681
740.125	45.99994
740.309	39.43852
740.494	48.15996
740.678	44.65864
740.863	46.37992
741.047	44.47243
741.231	52.1953
741.416	39.65466
741.6	52.02226
741.785	40.07403
741.969	48.5566
742.153	51.7733
742.338	34.01872
742.522	43.16931
742.706	48.30159
742.89	37.23293
743.075	44.92287
743.259	51.36968
743.443	49.62165
743.627	51.3013
743.812	57.58533
743.996	34.46742
744.18	42.30181
744.364	42.3596
744.548	57.86985
744.732	42.40234
744.916	50.40429
745.1	48.10756
745.285	42.93992
745.469	47.67796
745.653	54.46019
745.837	39.31567
746.021	58.36859
746.205	52.10846
746.389	45.46216
746.573	45.62361
746.757	53.73718
746.94	42.7189
747.124	51.56934
747.308	38.9962
747.492	51.72553
747.676	39.8722
747.86	61.64307
748.044	43.18636
748.227	36.30796
748.411	67.94994
748.595	45.03248
748.779	41.12122
748.963	46.72621
749.146	46.43082
749.33	40.97979
749.514	40.79864
749.697	51.19816
749.881	41.78365
750.065	40.64348
750.248	47.22036
750.432	60.47604
750.616	45.61078
750.799	39.72756
750.983	61.6887
751.166	60.08894
751.35	37.03726
751.533	50.77811
751.717	54.86757
751.9	55.80865
752.084	44.16284
752.267	40.6293
752.451	42.88773
752.634	46.42328
752.818	51.07618
753.001	51.07674
753.184	52.79668
753.368	49.27836
753.551	28.28095
753.734	41.92772
753.918	61.69017
754.101	42.55746
754.284	51.80632
754.467	44.65512
754.651	43.35209
754.834	40.87437
755.017	53.17676
755.2	53.85763
755.384	41.88326
755.567	51.23691
755.75	52.23149
755.933	45.41692
756.116	51.90077
756.299	43.94906
756.482	40.75436
756.665	50.11708
756.848	44.8912
757.032	48.97828
757.215	37.51569
757.398	39.95254
757.581	41.93456
757.764	65.25604
757.947	45.53539
758.129	52.40523
758.312	31.53094
758.495	44.91495
758.678	46.53225
758.861	43.17767
759.044	58.74517
759.227	40.77419
759.41	43.09548
759.592	52.57971
759.775	45.85815
759.958	52.53017
760.141	38.65692
760.324	64.58932
760.506	57.16338
760.689	53.94765
760.872	60.95169
761.054	51.29263
761.237	46.40734
761.42	48.51475
761.602	53.50771
761.785	48.89568
761.968	55.6791
762.15	59.34344
762.333	46.93577
762.515	50.36854
762.698	45.64573
762.88	54.31544
763.063	50.36679
763.245	54.75344
763.428	41.61775
763.61	44.98894
763.793	39.73419
763.975	50.33864
764.158	45.8935
764.34	44.47609
764.522	42.76656
764.705	48.19456
764.887	57.62022
765.069	39.98606
765.252	52.34025
765.434	53.03389
765.616	50.32784
765.799	43.93416
765.981	53.02891
766.163	45.9448
766.345	57.95638
766.528	44.30528
766.71	34.58274
766.892	49.23784
767.074	57.78079
767.256	47.07871
767.438	61.66991
767.62	50.69519
767.802	66.27424
767.985	53.27253
768.167	62.33364
768.349	45.2361
768.531	53.0458
768.713	50.80139
768.895	54.56255
769.077	52.44597
769.259	67.98938
769.441	86.56131
769.623	55.13654
769.804	60.06579
769.986	60.16205
770.168	66.17642
770.35	77.29327
770.532	61.61201
770.714	67.39255
770.896	66.06375
771.077	41.0859
771.259	70.20234
771.441	62.12718
771.623	72.26801
771.804	82.28546
771.986	42.88749
772.168	52.53195
772.35	69.48847
772.531	83.93344
772.713	61.24553
772.894	74.92806
773.076	59.48304
773.258	55.49453
773.439	75.20707
773.621	81.48682
773.802	50.94245
773.984	55.56685
774.166	63.4935
774.347	76.87897
774.529	73.16672
774.71	41.59361
774.891	58.85819
775.073	54.89341
775.254	74.84521
775.436	53.94475
775.617	88.20653
775.799	55.29977
775.98	74.23382
776.161	79.23692
776.343	85.06958
776.524	59.88994
776.705	57.91432
776.886	41.9084
777.068	63.09504
777.249	111.83013
777.43	84.13281
777.611	49.17237
777.793	57.24752
777.974	83.2735
778.155	55.01069
778.336	49.71922
778.517	93.71498
778.698	54.42853
778.879	42.90464
779.061	34.45342
779.242	67.18369
779.423	66.7275
779.604	56.05935
779.785	57.6648
779.966	64.22702
780.147	76.00879
780.328	73.08628
780.509	94.58945
780.69	73.13528
780.871	55.452
781.051	46.64051
781.232	64.0626
781.413	62.9755
781.594	59.59763
781.775	56.24603
781.956	53.39632
782.137	40.35076
782.317	56.03388
782.498	62.83387
782.679	60.75989
782.86	64.2565
783.04	55.45344
783.221	65.47321
783.402	85.00808
783.583	62.93003
783.763	72.79614
783.944	55.21751
784.124	46.87066
784.305	84.87612
784.486	70.10904
784.666	64.78436
784.847	46.69409
785.027	105.06212
785.208	58.93136
785.388	55.03249
785.569	55.09787
785.749	61.60857
785.93	56.39779
786.11	47.22193
786.291	70.4566
786.471	65.11035
786.652	73.60217
786.832	61.86753
787.012	65.30802
787.193	49.32039
787.373	64.18012
787.553	58.79643
787.734	66.60474
787.914	59.34877
788.094	74.29995
788.275	66.27997
788.455	58.26052
788.635	48.19475
788.815	65.52293
788.995	51.16186
789.176	46.76309
789.356	54.12651
789.536	58.95799
789.716	68.08952
789.896	55.16312
790.076	55.4567
790.256	67.35022
790.436	38.92835
790.616	51.42111
790.796	65.98492
790.976	59.80614
791.156	56.09524
791.336	71.91757
791.516	66.42812
791.696	59.71908
791.876	48.09006
792.056	64.58914
792.236	72.81185
792.416	73.29678
792.596	68.13741
792.776	69.76588
792.956	72.00986
793.135	85.84575
793.315	50.72934
793.495	75.94073
793.675	72.80662
793.854	71.66215
794.034	76.38797
794.214	52.3271
794.394	72.77349
794.573	79.76277
794.753	64.40302
794.933	53.45903
795.112	66.73282
795.292	75.4674
795.472	85.53525
795.651	49.56241
795.831	62.58432
796.01	59.08787
796.19	61.62305
796.369	64.27721
796.549	68.09515
796.728	63.11168
796.908	49.56349
797.087	49.45744
797.267	60.09517
797.446	51.08202
797.626	69.98751
797.805	68.64561
797.984	55.08043
798.164	73.67778
798.343	54.66466
798.522	66.07541
798.702	64.24511
798.881	49.35816
799.06	61.09822
799.239	44.75486
799.419	54.38272
799.598	86.14434
799.777	68.41792
799.956	78.9815
800.136	59.48594
800.315	54.99383
800.494	69.95863
800.673	80.66955
800.852	72.95051
801.031	78.09477
801.21	71.57078
801.389	60.68246
801.568	66.02211
801.747	90.78891
801.926	65.76888
802.105	84.62849
802.284	57.95017
802.463	85.10356
802.642	70.21806
802.821	68.53316
803	84.69714
803.179	75.63583
803.358	78.95357
803.537	56.26387
803.716	63.73641
803.895	61.86502
804.073	62.70909
804.252	56.56893
804.431	70.93054
804.61	61.02776
804.789	74.73129
804.967	59.08543
805.146	59.96466
805.325	93.83934
805.503	69.88656
805.682	49.86014
805.861	108.41977
806.039	83.76798
806.218	61.68858
806.397	68.53255
806.575	64.22547
806.754	70.4848
806.932	53.44655
807.111	78.65578
807.289	76.12251
807.468	65.93366
807.646	79.55974
807.825	75.05264
808.003	66.29786
808.182	77.79115
808.36	67.37446
808.539	55.34947
808.717	86.115
808.895	57.42322
809.074	70.6766
809.252	64.72141
809.43	73.2077
809.609	82.89354
809.787	85.96281
809.965	64.57907
810.144	66.18466
810.322	67.0175
810.5	71.95872
810.678	62.05713
810.856	98.01637
811.035	80.12413
811.213	75.94447
811.391	87.19808
811.569	71.5648
811.747	121.08882
811.925	83.69172
812.103	58.7349
812.281	68.42772
812.459	91.61717
812.637	94.14192
812.816	80.64733
812.994	98.65076
813.171	90.51706
813.349	75.88239
813.527	82.91486
813.705	90.97301
813.883	108.14765
814.061	82.34292
814.239	96.64542
814.417	102.30251
814.595	76.30124
814.773	75.81245
814.95	70.72715
815.128	74.81068
815.306	67.02796
815.484	65.90846
815.662	59.52803
815.839	54.48573
816.017	64.41063
816.195	85.98136
816.372	63.62074
816.55	81.61726
816.728	93.35464
816.905	65.8414
817.083	94.79373
817.261	69.88525
817.438	114.88391
817.616	95.15487
817.793	64.15762
817.971	83.34537
818.148	81.67208
818.326	90.34341
818.503	74.49156
818.681	96.04575
818.858	66.53041
819.036	71.12691
819.213	73.61696
819.391	62.10615
819.568	62.89159
819.745	59.49554
819.923	81.76749
820.1	68.26961
820.277	59.18767
820.455	66.657
820.632	68.87115
820.809	71.44027
820.986	57.40138
821.164	52.51331
821.341	51.29238
821.518	60.86208
821.695	53.11682
821.872	50.71013
822.05	47.58426
822.227	44.39275
822.404	46.32335
822.581	49.23245
822.758	46.97474
822.935	47.50697
823.112	49.98776
823.289	47.5928
823.466	51.06095
823.643	50.94761
823.82	54.91007
823.997	54.00601
824.174	57.82835
824.351	65.4546
824.528	64.48333
824.705	63.23602
824.882	65.51086
825.059	72.99676
825.236	62.61353
825.412	64.18423
825.589	67.28167
825.766	79.26182
825.943	62.69564
826.12	66.72535
826.296	58.64857
826.473	62.33272
826.65	61.85341
826.827	65.60679
827.003	54.59187
827.18	57.64755
827.357	60.63593
827.533	56.17617
827.71	46.71094
827.887	54.67106
828.063	58.67045
828.24	55.10593
828.416	61.1994
828.593	57.85767
828.769	68.89483
828.946	68.95224
829.122	71.78988
829.299	69.38267
829.475	59.24603
829.652	69.82656
829.828	91.87059
830.005	71.88049
830.181	84.22837
830.357	71.97705
830.534	85.34369
830.71	71.99727
830.886	82.5303
831.063	83.12152
831.239	93.18165
831.415	59.98542
831.592	91.33949
831.768	69.75957
831.944	66.16676
832.12	98.25908
832.296	92.41772
832.473	81.50676
832.649	65.91813
832.825	82.43503
833.001	61.23906
833.177	74.97465
833.353	69.25052
833.529	53.27133
833.705	67.53715
833.881	54.67781
834.058	55.55949
834.234	57.59103
834.41	58.27885
834.586	52.07832
834.761	55.78044
834.937	59.13425
835.113	60.97235
835.289	57.62347
835.465	62.84978
835.641	59.9242
835.817	64.41056
835.993	84.30174
836.169	63.17343
836.344	76.7559
836.52	81.31406
836.696	76.33671
836.872	70.15328
837.048	126.68166
837.223	72.0799
837.399	103.3005
837.575	91.00832
837.75	86.25713
837.926	104.58891
838.102	138.74437
838.277	121.65772
838.453	152.41643
838.628	149.81564
838.804	78.84074
838.98	133.05979
839.155	85.04117
839.331	104.57728
839.506	81.69947
839.682	84.8953
839.857	105.611
840.033	113.59715
840.208	73.02468
840.384	51.61105
840.559	72.57515
840.734	92.0767
840.91	110.69895
841.085	77.46711
841.26	79.88971
841.436	78.67936
841.611	77.8754
841.786	100.10497
841.962	119.52158
842.137	84.53018
842.312	70.83916
842.487	82.54165
842.663	77.14109
842.838	84.97369
843.013	195.71928
843.188	111.77493
843.363	95.85731
843.538	165.21732
843.714	163.89099
843.889	163.58574
844.064	177.89595
844.239	150.91901
844.414	162.71236
844.589	122.26975
844.764	201.89599
844.939	195.94222
845.114	212.57526
845.289	203.5372
845.464	263.17022
845.639	189.42245
845.814	113.23904
845.989	129.02827
846.163	148.38427
846.338	151.64725
846.513	203.64634
846.688	143.48047
846.863	139.37606
847.038	128.91949
847.212	149.82402
847.387	150.42852
847.562	163.06702
847.737	186.76133
847.911	91.28659
848.086	104.0346
848.261	285.88587
848.435	134.69586
848.61	194.34016
848.785	114.27361
848.959	193.76421
849.134	257.90133
849.308	258.28826
849.483	151.46386
849.658	231.20739
849.832	141.04958
850.007	128.76193
850.181	289.05261
850.356	131.85644
850.53	268.67647
850.705	107.98033
850.879	76.8836
851.053	154.66925
851.228	135.62675
851.402	168.29273
851.577	209.12305
851.751	231.56051
851.925	162.68911
852.099	95.74649
852.274	125.54075
852.448	150.81258
852.622	174.60676
852.797	157.57895
852.971	147.62767
853.145	165.45351
853.319	388.59337
853.493	221.90187
853.668	129.34239
853.842	257.08453
854.016	218.04982
854.19	245.2105
854.364	163.9564
854.538	173.2869
854.712	223.48823
854.886	149.85906
855.06	143.79095
855.234	81.65867
855.408	240.56031
855.582	197.57688
855.756	205.05493
855.93	256.82962
856.104	186.62807
856.278	208.51169
856.452	160.02614
856.626	202.9226
856.8	296.43382
856.973	192.87869
857.147	177.7344
857.321	178.15342
857.495	216.54377
857.669	155.40995
857.842	136.12836
858.016	215.88349
858.19	131.93513
858.364	330.40852
858.537	144.17861
858.711	164.54618
858.885	145.87358
859.058	132.74241
859.232	89.83942
859.405	105.10484
859.579	202.47496
859.753	175.53016
859.926	134.52774
860.1	103.55739
860.273	163.45314
860.447	238.59411
860.62	144.40136
860.794	287.56578
860.967	184.04137
861.141	217.8398
861.314	296.44177
861.487	200.53912
861.661	245.33425
861.834	236.455
862.008	212.72089
862.181	164.31367
862.354	169.20211
862.528	188.59556
862.701	135.3859
862.874	107.14315
863.047	154.88184
863.221	152.46752
863.394	90.83154
863.567	245.3386
863.74	83.02013
863.913	202.04096
864.087	177.39665
864.26	208.67478
864.433	164.38943
864.606	261.08613
864.779	173.55298
864.952	100.90685
865.125	141.12454
865.298	161.72531
865.471	164.03982
865.644	298.85587
865.817	252.31804
865.99	208.32763
866.163	231.65032
866.336	152.97955
866.509	168.94048
866.682	142.63669
866.855	231.29895
867.028	120.286
867.2	193.99117
867.373	98.34618
867.546	183.41435
867.719	297.97044
867.892	202.26545
868.064	131.72969
868.237	195.60487
868.41	173.70946
868.583	116.78148
868.755	123.94172
868.928	173.06169
869.101	309.36308
869.273	224.87514
869.446	206.61941
869.619	220.96077
869.791	161.06865
869.964	228.78644
870.136	212.34544
870.309	174.28914
870.481	179.50116
870.654	107.62064
870.826	181.02972
870.999	154.45875
871.171	213.66998
871.344	151.91237
871.516	157.57052
871.689	135.65612
871.861	179.13478
872.033	131.51805
872.206	154.29478
872.378	231.59111
872.55	150.90071
872.723	120.75116
872.895	164.13598
873.067	229.95247
873.24	256.14726
873.412	151.23078
873.584	160.00363
873.756	150.34195
873.928	194.59783
874.101	190.47834
874.273	202.9805
874.445	93.49896
874.617	114.41664
874.789	186.33223
874.961	158.64181
875.133	207.53806
875.305	175.49981
875.477	122.3706
875.649	112.28783
875.821	137.37989
875.993	264.13207
876.165	123.90032
876.337	194.02984
876.509	155.64448
876.681	190.70446
876.853	185.43856
877.025	188.21012
877.197	139.95849
877.369	127.9504
877.541	219.12713
877.712	95.75016
877.884	128.67077
878.056	207.64086
878.228	124.89657
878.4	191.74452
878.571	127.0517
878.743	101.5275
878.915	183.80039
879.086	121.6762
879.258	145.38086
879.43	133.009
879.601	121.66717
879.773	128.88746
879.945	59.14841
880.116	73.92137
880.288	59.34981
880.459	61.0822
880.631	57.27887
880.802	61.01346
880.974	59.55755
881.145	52.38223
881.317	58.87941
881.488	54.41068
881.66	57.09014
881.831	55.7644
882.002	62.9614
882.174	58.08547
882.345	64.54653
882.517	56.64011
882.688	70.70816
882.859	68.92824
883.03	83.49783
883.202	83.61614
883.373	82.60403
883.544	83.87789
883.715	108.29531
883.887	100.41355
884.058	96.30299
884.229	115.36411
884.4	113.87595
884.571	118.30392
884.742	111.48795
884.914	117.90692
885.085	139.87853
885.256	159.603
885.427	144.39116
885.598	154.39828
885.769	161.13794
885.94	158.40969
886.111	122.13877
886.282	170.36828
886.453	148.96777
886.624	117.31109
886.795	164.54548
886.966	146.0108
887.136	177.74004
887.307	142.17493
887.478	206.18676
887.649	189.22728
887.82	199.23892
887.991	167.28302
888.161	210.58376
888.332	202.66458
888.503	122.07502
888.674	255.44639
888.844	261.30723
889.015	224.76471
889.186	118.3635
889.356	249.02381
889.527	130.75985
889.698	397.62941
889.868	162.47867
890.039	190.33806
890.209	174.8637
890.38	222.2841
890.551	187.53234
890.721	262.56328
890.892	216.77931
891.062	164.71626
891.233	194.54073
891.403	171.25939
891.574	133.84368
891.744	167.75543
891.914	221.97856
892.085	176.33624
892.255	93.94551
892.425	252.64987
892.596	220.74517
892.766	204.43914
892.936	258.0292
893.107	224.81468
893.277	146.28044
893.447	113.19079
893.618	92.79973
893.788	156.93596
893.958	105.3075
894.128	104.38826
894.298	113.36868
894.468	134.75805
894.639	80.75435
894.809	72.11012
894.979	89.80125
895.149	99.45766
895.319	86.72091
895.489	102.98086
895.659	122.87652
895.829	101.39326
895.999	101.99113
896.169	91.21739
896.339	102.30424
896.509	168.77016
896.679	186.38703
896.849	184.21978
897.019	232.22949
897.189	197.49633
897.358	185.41812
897.528	245.87408
897.698	118.44686
897.868	221.50169
898.038	324.41728
898.208	315.01131
898.377	150.8194
898.547	318.93479
898.717	471.96276
898.886	228.59885
899.056	309.92364
899.226	435.62706
899.395	293.14671
899.565	347.2842
899.735	249.65343
899.904	382.95925
900.074	324.70111
900.244	196.51836
900.413	573.98636
900.583	176.46723
900.752	239.2795
900.922	364.21723
901.091	72.09294
901.261	314.93358
901.43	306.85104
901.599	310.65543
901.769	603.99607
901.938	324.79569
902.108	354.8022
902.277	409.35678
902.446	158.14316
902.616	164.74145
902.785	218.96966
902.954	332.75053
903.124	227.04933
903.293	200.41729
903.462	129.83269
903.631	155.36139
903.801	120.74951
903.97	85.63739
904.139	119.10063
904.308	96.7072
904.477	86.85316
904.646	70.91393
904.816	88.29546
904.985	109.53775
905.154	145.71968
