Data from WindowProjectSample_Transmission__21__00021__05146509449335962.txt Node

Date: Mon May 05 17:15:44 EDT 2025
User: jessi
Spectrometer: SR400872
Trigger mode: 0
Integration Time (sec): 5.000010E-1
Scans to average: 20
Electric dark correction enabled: true
Nonlinearity correction enabled: true
Boxcar width: 0
XAxis mode: Wavelengths
Number of Pixels in Spectrum: 3648
>>>>>Begin Spectral Data<<<<<
184.909	20588.23134
185.132	-5104.25228
185.355	-3042.24876
185.578	-17562.51553
185.801	1108.34289
186.024	10233.50965
186.247	-1855.80773
186.47	1182.2625
186.693	243.13675
186.916	301.27415
187.139	-3722.9648
187.362	3186.42302
187.585	4070.96541
187.808	3739.23452
188.031	22.00268
188.254	-57556.06513
188.476	-648.95962
188.699	5997.50328
188.922	613.97931
189.145	-15105.86595
189.368	-743.44421
189.591	-1330.3497
189.813	2935.3178
190.036	-50581.86571
190.259	-864.80061
190.482	-4399.27073
190.705	7183.2847
190.927	-2398.07267
191.15	12599.92996
191.373	3153.48012
191.595	-8386.44139
191.818	-4021.88966
192.041	-6125.22945
192.263	-3416.23387
192.486	-712.18723
192.709	-3891.88863
192.931	7521.06605
193.154	-27288.80952
193.377	-2857.01234
193.599	-2486.13973
193.822	-9211.22032
194.044	-1958.46138
194.267	1148.24677
194.489	325.18332
194.712	-42730.80921
194.934	-31547.47828
195.157	1243.84538
195.379	1387.66327
195.602	-7064.47773
195.824	-1315.6506
196.047	-8396.33854
196.269	2645.43664
196.492	-6348.05017
196.714	27997.29656
196.936	-8787.10444
197.159	-1133.51607
197.381	1080.44068
197.604	363.70754
197.826	11833.0602
198.048	-11200.51561
198.271	-2734.82604
198.493	7924.78663
198.715	2173.39522
198.938	-500.66337
199.16	6490.03227
199.382	-103415.71623
199.604	2406.47211
199.827	-1008.30321
200.049	-2941.58961
200.271	14647.84332
200.493	1237.94545
200.715	-37920.17307
200.938	-5932.46927
201.16	-4059.28807
201.382	20498.59689
201.604	2430.24332
201.826	2217.35492
202.048	-1919.42639
202.27	-1939.37152
202.492	-37074.26236
202.715	2653.76506
202.937	-4465.08372
203.159	-5928.94867
203.381	1551.85918
203.603	6749.8899
203.825	6242.93297
204.047	2214.37037
204.269	-2948.65598
204.491	2173.1131
204.713	5612.25951
204.935	-483758.13559
205.156	1181.38189
205.378	-2811.18331
205.6	1576.00502
205.822	151685.07788
206.044	-1051.85991
206.266	1613.01269
206.488	4660.80428
206.71	-5228.60911
206.932	1049.93962
207.153	12103.30849
207.375	-6779.28835
207.597	-37188.38867
207.819	-2796.83003
208.041	2408.31159
208.262	462.18577
208.484	703.41314
208.706	-770.33218
208.927	-815.77627
209.149	530.82498
209.371	-2905.87586
209.593	-201.8434
209.814	-759.28198
210.036	555.84342
210.258	-677.51666
210.479	1713.16792
210.701	1568.51529
210.922	3059.45171
211.144	-3822.89579
211.366	2069.16336
211.587	7151.29554
211.809	-8269.0393
212.03	2183.73289
212.252	438.38741
212.473	2096.47284
212.695	-6758.52955
212.916	2821.77885
213.138	-593.59061
213.359	3592.6001
213.581	5046.83392
213.802	-767.14783
214.024	1150.04707
214.245	1976.51829
214.466	1966.01973
214.688	-3234.56629
214.909	-1219.76657
215.131	-1733.04512
215.352	-2945.89685
215.573	14360.04582
215.795	5094.04603
216.016	5342.06341
216.237	868.97576
216.459	3624.47544
216.68	1738.30399
216.901	4867.98318
217.122	-3078.99474
217.344	-11318.85099
217.565	3464.30457
217.786	8974.92237
218.007	17626.78347
218.228	-658.59869
218.45	5628.27843
218.671	777.93598
218.892	35351.58852
219.113	1522.07589
219.334	-281.19374
219.555	8860.77719
219.776	3013.01518
219.997	21431.95461
220.219	2522.06861
220.44	-9790.84721
220.661	480.60357
220.882	1419.97146
221.103	-1224.75711
221.324	2296.63035
221.545	2257.9678
221.766	-8964.70111
221.987	866.29773
222.208	1622.69946
222.429	4276.16377
222.65	365.14512
222.87	18276.50012
223.091	698.3204
223.312	588.99661
223.533	1364.85095
223.754	1470.1517
223.975	1390.19377
224.196	1936.11296
224.417	1305.8795
224.637	605.8394
224.858	2.26763
225.079	1059.45493
225.3	628.85451
225.521	3733.57368
225.741	454.40587
225.962	506.1218
226.183	121.49611
226.404	651.87704
226.624	415.38649
226.845	643.43701
227.066	397.90396
227.286	243.0714
227.507	124.55365
227.728	119.00612
227.948	234.84305
228.169	71.66007
228.389	86.94411
228.61	47.08205
228.831	61.64418
229.051	0.77706
229.272	39.32691
229.492	57.28729
229.713	12.21936
229.933	35.66548
230.154	32.29139
230.374	54.46933
230.595	38.16368
230.815	24.84221
231.036	37.44511
231.256	-10.32217
231.477	68.02253
231.697	39.5774
231.917	37.75052
232.138	54.95616
232.358	111.00109
232.579	99.18141
232.799	16.0167
233.019	98.47935
233.24	109.1685
233.46	39.15262
233.68	64.38169
233.901	41.02039
234.121	28.52931
234.341	12.72332
234.561	-4.72693
234.782	20.7978
235.002	67.50444
235.222	-4.78571
235.442	65.17051
235.662	31.65452
235.883	60.1045
236.103	49.23932
236.323	32.98152
236.543	27.29394
236.763	37.33224
236.983	41.2164
237.203	42.94187
237.423	58.14988
237.643	86.07853
237.864	73.34024
238.084	17.94708
238.304	27.14873
238.524	43.90469
238.744	38.23072
238.964	75.92981
239.184	61.39762
239.404	63.79819
239.624	32.09614
239.843	58.66911
240.063	36.54662
240.283	21.88231
240.503	26.90804
240.723	24.82725
240.943	13.70975
241.163	19.29995
241.383	14.31981
241.603	6.80157
241.822	9.80072
242.042	6.20769
242.262	7.75717
242.482	9.56028
242.702	10.64957
242.921	2.58979
243.141	6.67581
243.361	5.76215
243.581	9.63553
243.8	7.31593
244.02	5.0972
244.24	9.02562
244.459	9.12932
244.679	17.26956
244.899	10.79357
245.118	12.28408
245.338	11.46303
245.558	13.76752
245.777	8.06528
245.997	9.60602
246.216	9.97334
246.436	5.87553
246.655	4.84244
246.875	3.14512
247.094	6.20011
247.314	2.0271
247.533	3.65427
247.753	4.17265
247.972	3.26616
248.192	1.09928
248.411	1.79736
248.631	3.52259
248.85	4.63568
249.07	3.89231
249.289	5.6273
249.508	4.81615
249.728	7.38867
249.947	6.6816
250.166	8.94026
250.386	3.82615
250.605	6.5351
250.824	10.936
251.044	7.67021
251.263	28.4648
251.482	14.49877
251.701	11.08511
251.921	-0.32965
252.14	3.22035
252.359	3.84782
252.578	9.73154
252.798	3.33821
253.017	8.92792
253.236	3.9145
253.455	5.43378
253.674	10.13708
253.893	4.63516
254.112	7.21037
254.331	11.14283
254.551	8.94248
254.77	3.68919
254.989	12.84374
255.208	8.70776
255.427	14.25806
255.646	11.41115
255.865	21.47836
256.084	8.57755
256.303	10.84171
256.522	13.5781
256.741	3.21084
256.96	2.35424
257.179	8.1786
257.397	10.706
257.616	5.8787
257.835	6.12306
258.054	14.80286
258.273	10.51432
258.492	10.59984
258.711	6.81493
258.93	2.70087
259.148	4.74044
259.367	4.63639
259.586	5.41096
259.805	2.33073
260.023	5.25941
260.242	3.86671
260.461	2.75188
260.68	1.27748
260.898	4.3451
261.117	1.4055
261.336	0.85691
261.554	3.26766
261.773	3.37222
261.992	0.6448
262.21	3.22202
262.429	3.39615
262.648	7.45168
262.866	8.00099
263.085	5.40706
263.303	4.65827
263.522	8.49362
263.74	8.6783
263.959	15.65428
264.178	7.02196
264.396	5.94368
264.615	4.37301
264.833	10.51804
265.051	8.86392
265.27	11.06507
265.488	10.65815
265.707	6.12564
265.925	10.91679
266.144	4.66322
266.362	5.63667
266.58	5.25435
266.799	5.05925
267.017	5.75383
267.235	5.46347
267.454	2.94948
267.672	1.66044
267.89	3.9368
268.109	4.34635
268.327	4.06399
268.545	1.00012
268.763	3.64938
268.982	1.36581
269.2	4.23898
269.418	3.0951
269.636	1.90235
269.854	4.54046
270.073	3.23312
270.291	1.77433
270.509	1.59571
270.727	4.20193
270.945	7.37631
271.163	6.87982
271.381	1.41358
271.599	3.11528
271.817	5.34438
272.036	1.89645
272.254	2.94331
272.472	2.3352
272.69	2.47707
272.908	2.36584
273.126	4.31105
273.344	5.39129
273.562	1.66109
273.779	2.47545
273.997	3.78094
274.215	4.0682
274.433	2.82724
274.651	4.23176
274.869	4.81269
275.087	2.61309
275.305	3.97018
275.523	2.3842
275.74	2.86379
275.958	5.287
276.176	7.81682
276.394	2.63593
276.612	3.31904
276.829	3.1221
277.047	2.72012
277.265	2.86969
277.483	3.57807
277.7	4.40554
277.918	3.32491
278.136	6.03564
278.353	2.85791
278.571	1.48677
278.789	4.41773
279.006	1.09369
279.224	3.02089
279.442	5.08661
279.659	3.60144
279.877	2.42284
280.094	5.68505
280.312	0.77799
280.529	3.30099
280.747	0.95846
280.964	2.5854
281.182	5.91568
281.399	2.67318
281.617	3.75931
281.834	2.36457
282.052	1.8668
282.269	3.16161
282.487	2.41346
282.704	1.90519
282.921	2.04398
283.139	3.24395
283.356	3.8259
283.574	3.77234
283.791	1.8635
284.008	5.56158
284.226	3.00287
284.443	3.1537
284.66	4.4293
284.877	3.36819
285.095	2.04231
285.312	1.57136
285.529	0.84792
285.746	0.81205
285.964	1.93414
286.181	1.34164
286.398	1.87287
286.615	2.53871
286.832	2.4865
287.05	0.6049
287.267	1.81962
287.484	1.71117
287.701	2.60253
287.918	2.57354
288.135	2.55506
288.352	1.19972
288.569	1.38692
288.786	2.3084
289.003	1.96852
289.22	3.04378
289.437	1.54424
289.654	2.89867
289.871	3.01541
290.088	2.9377
290.305	2.1844
290.522	1.68597
290.739	1.94149
290.956	3.03018
291.173	3.52206
291.39	3.29857
291.607	2.39881
291.824	1.68234
292.04	1.18523
292.257	2.91801
292.474	3.14178
292.691	1.90949
292.908	0.91462
293.125	1.68578
293.341	1.27419
293.558	4.95248
293.775	2.05763
293.992	1.97135
294.208	0.83481
294.425	1.39582
294.642	1.914
294.858	2.80435
295.075	0.7449
295.292	2.05958
295.508	2.52471
295.725	4.27185
295.942	2.03761
296.158	1.65665
296.375	2.49785
296.591	2.01547
296.808	2.30163
297.024	2.69702
297.241	2.86678
297.458	3.15708
297.674	1.09656
297.891	2.76847
298.107	2.60717
298.323	1.99238
298.54	4.22758
298.756	2.50621
298.973	1.83732
299.189	4.41388
299.406	2.58597
299.622	4.07835
299.838	4.00857
300.055	4.05702
300.271	2.26959
300.487	2.49052
300.704	2.91332
300.92	2.42537
301.136	6.02374
301.353	4.2228
301.569	3.5845
301.785	4.00819
302.001	4.43489
302.218	4.08169
302.434	4.41861
302.65	2.81401
302.866	3.53136
303.083	6.15041
303.299	6.14634
303.515	4.18781
303.731	4.44716
303.947	2.98074
304.163	3.77281
304.379	4.36711
304.595	4.73349
304.812	3.64585
305.028	3.74971
305.244	4.08754
305.46	4.99308
305.676	5.08328
305.892	5.66523
306.108	5.0379
306.324	3.97323
306.54	6.2224
306.756	4.92196
306.972	4.74221
307.187	4.55682
307.403	5.71994
307.619	4.25522
307.835	5.68743
308.051	6.17363
308.267	3.81665
308.483	6.01198
308.699	5.19754
308.914	4.90272
309.13	4.65603
309.346	3.83594
309.562	4.04011
309.778	3.87786
309.993	5.59055
310.209	5.40459
310.425	4.20157
310.641	5.17091
310.856	4.5222
311.072	4.33966
311.288	5.19711
311.503	5.44731
311.719	3.91105
311.935	3.97179
312.15	5.94742
312.366	5.68425
312.581	5.73722
312.797	5.66093
313.013	6.25819
313.228	5.00198
313.444	5.10977
313.659	4.74761
313.875	5.82267
314.09	5.11096
314.306	6.5173
314.521	5.95009
314.737	6.08294
314.952	5.3167
315.168	5.42526
315.383	5.71214
315.599	5.07619
315.814	5.13578
316.029	6.09629
316.245	4.68908
316.46	3.77278
316.675	6.48415
316.891	7.01674
317.106	8.01653
317.321	5.49778
317.537	6.11201
317.752	6.41727
317.967	6.41265
318.183	4.78059
318.398	5.20785
318.613	6.39307
318.828	6.8371
319.043	6.23273
319.259	5.48757
319.474	5.83472
319.689	6.69038
319.904	4.07608
320.119	6.54199
320.334	5.91628
320.549	5.52614
320.765	6.64507
320.98	6.11844
321.195	5.96238
321.41	5.62695
321.625	6.31465
321.84	7.27438
322.055	7.1089
322.27	5.15915
322.485	4.57786
322.7	6.18057
322.915	6.54909
323.13	5.31792
323.345	7.41743
323.56	7.06212
323.775	6.5362
323.989	6.40342
324.204	6.16782
324.419	7.126
324.634	5.11172
324.849	6.05654
325.064	9.13415
325.279	7.00995
325.493	6.50043
325.708	6.95138
325.923	5.48401
326.138	6.05366
326.352	7.55125
326.567	6.92991
326.782	5.6513
326.997	5.76426
327.211	6.80464
327.426	6.44176
327.641	5.99536
327.855	4.92794
328.07	6.7132
328.285	7.92716
328.499	5.71101
328.714	6.31748
328.928	6.64442
329.143	6.10319
329.358	7.36245
329.572	7.16105
329.787	7.34602
330.001	8.60456
330.216	5.20999
330.43	8.21126
330.645	7.69409
330.859	7.23244
331.074	5.48151
331.288	6.29702
331.503	7.66725
331.717	5.47863
331.931	6.39982
332.146	6.6618
332.36	8.23042
332.575	6.7023
332.789	6.71557
333.003	6.80584
333.218	6.85915
333.432	5.88391
333.646	7.49441
333.86	8.2173
334.075	7.9916
334.289	6.03367
334.503	5.43312
334.717	7.01018
334.932	6.81257
335.146	7.40726
335.36	5.94986
335.574	7.12354
335.788	6.8015
336.003	7.32359
336.217	7.28442
336.431	7.10026
336.645	6.2234
336.859	5.68425
337.073	6.53161
337.287	6.82577
337.501	5.61885
337.715	7.23602
337.929	7.47953
338.143	5.90603
338.357	6.68098
338.571	6.44323
338.785	7.52513
338.999	6.52923
339.213	6.38708
339.427	5.83235
339.641	8.17224
339.855	6.55971
340.069	6.08153
340.283	7.74682
340.497	8.39649
340.711	7.40694
340.924	6.87392
341.138	6.09931
341.352	5.76349
341.566	7.1072
341.78	5.75999
341.993	6.56708
342.207	6.40644
342.421	7.32528
342.635	6.80874
342.848	6.79406
343.062	5.14723
343.276	6.43225
343.49	8.57362
343.703	6.47597
343.917	7.85996
344.131	8.06104
344.344	6.40026
344.558	6.949
344.771	5.96011
344.985	8.47362
345.199	8.5164
345.412	7.50729
345.626	7.49658
345.839	5.89107
346.053	6.16761
346.266	6.39113
346.48	7.64572
346.693	7.6085
346.907	7.28633
347.12	6.50814
347.334	7.24406
347.547	7.40309
347.76	7.05712
347.974	7.95751
348.187	7.38258
348.401	6.92063
348.614	6.42426
348.827	6.87734
349.041	7.27278
349.254	5.79099
349.467	6.72916
349.681	6.37
349.894	6.45366
350.107	8.26871
350.32	8.68995
350.534	6.07219
350.747	6.88117
350.96	6.60151
351.173	6.71228
351.386	6.94734
351.6	6.65536
351.813	6.79797
352.026	6.89902
352.239	6.31485
352.452	6.85866
352.665	8.05388
352.878	7.03739
353.092	8.87629
353.305	7.86974
353.518	7.43671
353.731	6.51855
353.944	8.19677
354.157	7.10968
354.37	6.97444
354.583	6.44679
354.796	6.41676
355.009	8.09792
355.222	7.70511
355.435	7.45364
355.647	8.26299
355.86	6.89034
356.073	7.67877
356.286	7.12133
356.499	8.11923
356.712	8.19541
356.925	8.21455
357.138	8.25089
357.35	7.11578
357.563	7.36996
357.776	7.87935
357.989	7.76421
358.201	8.21725
358.414	8.07762
358.627	8.99853
358.84	7.65165
359.052	6.81201
359.265	7.29344
359.478	8.46857
359.69	5.99381
359.903	8.40941
360.116	8.58756
360.328	6.72837
360.541	8.52476
360.753	7.39717
360.966	7.73657
361.179	7.85902
361.391	7.72429
361.604	7.70245
361.816	7.84348
362.029	7.96613
362.241	7.60993
362.454	8.02605
362.666	7.58345
362.879	8.56046
363.091	7.86849
363.304	7.82575
363.516	7.95867
363.728	7.41315
363.941	8.40358
364.153	8.18581
364.366	6.55085
364.578	7.30481
364.79	8.0303
365.003	8.16777
365.215	7.3436
365.427	8.38604
365.639	8.56289
365.852	7.98609
366.064	9.35777
366.276	7.78046
366.488	8.11947
366.701	7.56448
366.913	7.72328
367.125	7.88853
367.337	7.25549
367.549	7.64189
367.762	7.85991
367.974	7.90027
368.186	7.65499
368.398	8.50591
368.61	8.17879
368.822	8.45587
369.034	7.64294
369.246	8.51086
369.458	10.18245
369.67	7.29855
369.882	9.03992
370.094	6.6258
370.306	8.99826
370.518	7.57739
370.73	7.43904
370.942	7.60905
371.154	8.03753
371.366	7.75155
371.578	8.22282
371.79	7.8553
372.002	8.89953
372.214	9.64315
372.425	8.01607
372.637	9.24173
372.849	8.38201
373.061	6.7184
373.273	8.3406
373.484	8.15312
373.696	8.57845
373.908	6.58632
374.12	8.8183
374.331	8.39213
374.543	7.44443
374.755	7.44803
374.967	8.03057
375.178	8.77546
375.39	7.67268
375.602	8.23246
375.813	7.00334
376.025	7.59624
376.236	8.29382
376.448	8.56916
376.66	8.07117
376.871	8.17119
377.083	9.09273
377.294	9.64472
377.506	7.98142
377.717	9.31138
377.929	8.66127
378.14	8.20095
378.352	8.55885
378.563	8.77817
378.775	9.38739
378.986	7.63403
379.197	8.30952
379.409	7.64866
379.62	8.67977
379.832	8.53681
380.043	8.1319
380.254	8.5944
380.466	7.55974
380.677	10.31419
380.888	9.61761
381.1	10.06108
381.311	10.18014
381.522	8.57051
381.733	10.29229
381.945	8.29763
382.156	8.1783
382.367	8.0595
382.578	10.23027
382.789	10.33116
383.001	8.00919
383.212	9.62643
383.423	9.53436
383.634	9.30645
383.845	8.99265
384.056	8.37785
384.267	8.54846
384.478	8.61921
384.69	7.84553
384.901	8.84253
385.112	8.74146
385.323	9.86372
385.534	8.89108
385.745	9.0331
385.956	8.7289
386.167	8.19735
386.378	8.94706
386.588	8.23413
386.799	8.14762
387.01	7.76568
387.221	9.24621
387.432	8.67332
387.643	9.85873
387.854	8.52645
388.065	8.43614
388.275	8.56275
388.486	8.22823
388.697	8.61058
388.908	8.33109
389.119	9.468
389.329	9.62292
389.54	8.76317
389.751	8.83974
389.962	9.5644
390.172	8.75365
390.383	8.65986
390.594	8.25162
390.804	8.42009
391.015	8.52891
391.226	9.0231
391.436	9.18622
391.647	9.12644
391.858	9.23823
392.068	7.98098
392.279	8.25111
392.489	9.19126
392.7	9.50412
392.91	8.51117
393.121	8.35672
393.331	9.22338
393.542	9.54557
393.752	9.36949
393.963	9.27076
394.173	9.26072
394.384	9.31409
394.594	9.02346
394.804	8.3027
395.015	9.05862
395.225	9.35078
395.436	8.55479
395.646	9.27481
395.856	8.75271
396.067	7.9961
396.277	9.51571
396.487	9.12773
396.697	9.19611
396.908	9.21486
397.118	9.18743
397.328	8.93375
397.538	9.45574
397.749	8.4196
397.959	9.37412
398.169	9.14805
398.379	8.15292
398.589	9.20481
398.8	9.01456
399.01	9.07686
399.22	8.78014
399.43	10.27083
399.64	9.03616
399.85	9.20526
400.06	9.05117
400.27	8.451
400.48	8.9252
400.69	9.92462
400.9	8.58365
401.11	8.36856
401.32	9.40496
401.53	8.67897
401.74	9.99323
401.95	9.28591
402.16	8.6024
402.37	9.08148
402.58	8.64077
402.79	9.30745
403	9.60785
403.209	8.58678
403.419	9.7538
403.629	8.53318
403.839	9.66992
404.049	9.6752
404.258	8.83678
404.468	8.70518
404.678	9.43877
404.888	9.99572
405.097	9.06541
405.307	9.10914
405.517	9.74213
405.727	9.54382
405.936	9.05201
406.146	9.37873
406.356	10.0921
406.565	9.18754
406.775	9.0247
406.984	8.91327
407.194	10.22337
407.404	9.14773
407.613	9.64023
407.823	9.64779
408.032	9.77422
408.242	9.77654
408.451	8.87882
408.661	8.96625
408.87	10.23361
409.08	8.64484
409.289	9.33464
409.499	9.35108
409.708	9.19924
409.918	7.98149
410.127	9.52694
410.336	10.22423
410.546	9.81923
410.755	9.0679
410.964	9.2306
411.174	8.77081
411.383	9.60128
411.592	9.49866
411.802	8.75602
412.011	9.77686
412.22	9.13726
412.429	10.32846
412.639	10.27452
412.848	9.66564
413.057	10.16334
413.266	10.00102
413.475	9.36602
413.685	9.60889
413.894	9.94825
414.103	9.97595
414.312	9.86852
414.521	9.21805
414.73	9.59755
414.939	10.70641
415.148	9.84469
415.357	9.5265
415.566	9.42269
415.776	9.47104
415.985	9.50017
416.194	10.17022
416.403	10.82054
416.611	9.05109
416.82	9.59037
417.029	9.87314
417.238	9.51739
417.447	9.42519
417.656	9.80978
417.865	9.47444
418.074	9.84355
418.283	9.99546
418.492	10.60777
418.7	10.38003
418.909	11.44085
419.118	10.56654
419.327	10.93888
419.536	10.91768
419.744	10.9388
419.953	12.23941
420.162	12.5019
420.371	12.02383
420.579	12.61621
420.788	13.39763
420.997	13.5628
421.205	14.01438
421.414	13.7812
421.623	13.98679
421.831	13.6273
422.04	14.07968
422.249	13.24355
422.457	13.50677
422.666	12.58632
422.874	13.38007
423.083	13.47098
423.291	13.39972
423.5	13.36827
423.708	13.74954
423.917	14.26134
424.125	13.83249
424.334	13.6993
424.542	15.29768
424.751	14.97407
424.959	14.54114
425.167	14.61525
425.376	14.3727
425.584	13.14595
425.793	13.01938
426.001	12.04456
426.209	12.0488
426.418	10.9292
426.626	10.57422
426.834	10.40644
427.042	10.68523
427.251	10.39449
427.459	11.24367
427.667	10.76356
427.875	10.04431
428.084	10.4197
428.292	11.35325
428.5	11.01616
428.708	10.05764
428.916	10.16864
429.124	10.73309
429.333	10.38579
429.541	10.44785
429.749	10.63827
429.957	10.63078
430.165	12.25638
430.373	9.86354
430.581	10.75581
430.789	11.47799
430.997	10.54105
431.205	10.22739
431.413	10.88405
431.621	10.59379
431.829	11.16161
432.037	10.64128
432.245	10.98123
432.453	11.01939
432.661	10.80654
432.869	11.87658
433.076	10.47986
433.284	10.87404
433.492	11.39139
433.7	11.52787
433.908	10.81118
434.116	11.1116
434.323	11.19741
434.531	11.071
434.739	11.39632
434.947	11.5967
435.154	11.61251
435.362	11.15501
435.57	10.97854
435.778	10.79387
435.985	11.213
436.193	10.79446
436.401	11.88437
436.608	11.1279
436.816	10.82929
437.023	11.84301
437.231	12.02921
437.439	11.24676
437.646	11.4473
437.854	11.22146
438.061	11.39452
438.269	10.99065
438.476	11.46007
438.684	11.19014
438.891	11.07721
439.099	10.84803
439.306	10.63127
439.514	10.74209
439.721	11.72488
439.929	11.54131
440.136	12.44812
440.343	12.52483
440.551	12.48713
440.758	14.01979
440.965	12.82254
441.173	12.58579
441.38	12.5115
441.587	12.17338
441.795	12.06527
442.002	11.60163
442.209	11.58058
442.416	11.60285
442.624	11.72498
442.831	11.5858
443.038	11.07861
443.245	10.8292
443.452	11.20159
443.66	11.64654
443.867	11.01882
444.074	10.97228
444.281	11.01064
444.488	11.22465
444.695	11.34302
444.902	11.12887
445.109	12.28535
445.316	12.07215
445.523	12.67737
445.73	12.99328
445.937	13.90252
446.144	14.39871
446.351	14.8169
446.558	14.03356
446.765	15.82143
446.972	15.11576
447.179	14.72465
447.386	15.28174
447.593	13.61442
447.8	14.50267
448.007	12.98523
448.214	12.38972
448.42	11.84694
448.627	12.09434
448.834	11.54861
449.041	11.44266
449.248	11.48949
449.454	11.86523
449.661	12.52995
449.868	11.32421
450.075	11.31107
450.281	10.41687
450.488	10.94197
450.695	10.99112
450.901	11.05421
451.108	11.06614
451.315	11.95109
451.521	11.36749
451.728	12.00995
451.935	10.9474
452.141	11.3626
452.348	11.37057
452.554	11.38832
452.761	11.15806
452.967	12.33617
453.174	11.58876
453.38	11.73493
453.587	10.93441
453.793	11.58444
454	12.05918
454.206	12.64351
454.413	12.06131
454.619	11.78207
454.825	11.16505
455.032	11.82896
455.238	11.99262
455.445	10.95176
455.651	11.64236
455.857	10.61951
456.064	11.30135
456.27	11.35015
456.476	11.33508
456.682	10.83061
456.889	11.62977
457.095	11.66278
457.301	12.756
457.507	11.61461
457.714	11.61309
457.92	11.51258
458.126	11.11421
458.332	11.42506
458.538	11.27455
458.744	11.44502
458.951	11.45435
459.157	13.59882
459.363	13.00382
459.569	13.49004
459.775	14.25724
459.981	14.00726
460.187	14.58724
460.393	14.85296
460.599	15.02854
460.805	14.05959
461.011	13.12074
461.217	12.89993
461.423	12.55372
461.629	11.99409
461.835	12.22768
462.041	11.87987
462.247	12.64761
462.453	11.7666
462.658	11.70942
462.864	12.19322
463.07	11.8956
463.276	11.945
463.482	11.75201
463.688	12.46741
463.893	11.41083
464.099	11.68955
464.305	12.60156
464.511	11.56071
464.716	11.74111
464.922	12.17995
465.128	11.41843
465.333	12.66704
465.539	12.22504
465.745	11.88716
465.95	11.78854
466.156	13.46103
466.362	12.42837
466.567	11.90251
466.773	11.54352
466.978	12.68643
467.184	11.42872
467.389	10.87793
467.595	12.07396
467.8	11.46021
468.006	12.68327
468.211	12.54356
468.417	11.31964
468.622	12.10682
468.828	12.23698
469.033	12.12977
469.239	13.35987
469.444	11.71168
469.649	12.54422
469.855	11.91217
470.06	11.94919
470.266	11.51946
470.471	12.27374
470.676	12.17057
470.881	11.00684
471.087	12.72003
471.292	13.47749
471.497	11.3674
471.703	11.94579
471.908	11.67145
472.113	12.03993
472.318	12.51035
472.523	11.49682
472.729	12.24475
472.934	12.25387
473.139	11.79778
473.344	12.3045
473.549	12.65909
473.754	11.6427
473.959	13.60085
474.164	11.59504
474.369	11.97204
474.575	12.43908
474.78	12.06185
474.985	11.60614
475.19	11.15424
475.395	11.59199
475.6	12.10979
475.804	12.78073
476.009	12.01751
476.214	12.05483
476.419	11.95726
476.624	11.27964
476.829	11.71806
477.034	12.442
477.239	11.83289
477.444	12.5062
477.648	12.49552
477.853	12.37962
478.058	12.01029
478.263	11.8018
478.468	11.63329
478.672	11.74291
478.877	12.86787
479.082	12.88331
479.287	12.50548
479.491	12.18288
479.696	11.77342
479.901	12.50209
480.105	12.58596
480.31	11.82131
480.515	12.25004
480.719	13.32886
480.924	12.00091
481.128	11.688
481.333	12.36748
481.538	12.35019
481.742	12.77702
481.947	13.86133
482.151	15.02623
482.356	16.01644
482.56	18.54449
482.765	20.66556
482.969	24.28083
483.174	27.48136
483.378	31.74407
483.582	33.49083
483.787	35.95996
483.991	37.28676
484.196	38.19547
484.4	38.01871
484.604	38.56488
484.809	35.90804
485.013	33.88402
485.217	30.836
485.422	27.76469
485.626	25.04837
485.83	23.26364
486.034	22.27894
486.239	22.24487
486.443	22.56165
486.647	23.12185
486.851	24.2938
487.055	25.98507
487.26	26.31935
487.464	27.64123
487.668	27.48804
487.872	28.38207
488.076	28.67844
488.28	27.80198
488.484	26.39702
488.688	25.72966
488.892	24.38419
489.096	22.67415
489.3	21.04077
489.504	19.58964
489.708	18.42412
489.912	17.82625
490.116	17.26884
490.32	16.75365
490.524	17.97901
490.728	18.94957
490.932	19.99692
491.136	21.28917
491.34	22.67366
491.544	23.32297
491.748	23.61067
491.951	23.84483
492.155	23.4645
492.359	22.96448
492.563	21.43647
492.767	20.3373
492.97	18.47354
493.174	16.57166
493.378	15.07826
493.582	13.38403
493.785	12.70436
493.989	12.76368
494.193	12.65398
494.396	12.44422
494.6	12.98514
494.804	12.5685
495.007	12.22642
495.211	12.21193
495.414	12.30931
495.618	12.59161
495.822	13.03655
496.025	12.54328
496.229	12.82243
496.432	12.1419
496.636	12.51535
496.839	12.54288
497.043	13.25655
497.246	12.81091
497.45	12.51064
497.653	12.701
497.856	12.77363
498.06	12.29889
498.263	12.53201
498.467	12.49774
498.67	12.99531
498.873	12.87564
499.077	12.53953
499.28	12.53516
499.483	12.69514
499.686	12.94426
499.89	12.71762
500.093	12.98919
500.296	12.25472
500.499	13.33014
500.703	12.58729
500.906	12.74417
501.109	13.45579
501.312	12.67535
501.515	12.40036
501.719	12.7541
501.922	13.1996
502.125	12.71558
502.328	12.42242
502.531	12.11651
502.734	12.49648
502.937	11.76887
503.14	12.64517
503.343	12.1243
503.546	12.45061
503.749	12.18057
503.952	12.96273
504.155	12.1608
504.358	12.71016
504.561	12.60809
504.764	11.94023
504.967	12.72104
505.17	12.46257
505.373	13.37686
505.576	12.62322
505.778	12.8895
505.981	12.13863
506.184	13.16217
506.387	11.78
506.59	13.55833
506.793	12.98552
506.995	12.78217
507.198	11.64969
507.401	12.79425
507.604	12.86512
507.806	12.17281
508.009	12.20902
508.212	12.91826
508.414	12.19704
508.617	12.3392
508.82	12.63938
509.022	13.33686
509.225	12.82951
509.427	11.94628
509.63	13.27277
509.833	12.57293
510.035	12.39073
510.238	11.93557
510.44	13.22465
510.643	11.83898
510.845	13.57693
511.048	12.90335
511.25	12.44708
511.453	12.48893
511.655	12.82613
511.858	12.43259
512.06	13.00433
512.262	12.64072
512.465	13.01314
512.667	12.43965
512.869	12.08431
513.072	12.79535
513.274	12.91525
513.476	12.93303
513.679	13.0226
513.881	12.24072
514.083	13.41532
514.286	12.33898
514.488	12.28884
514.69	12.16994
514.892	11.93415
515.094	12.94576
515.297	12.22343
515.499	12.60578
515.701	12.14223
515.903	13.42039
516.105	13.42748
516.307	12.87966
516.509	11.65533
516.711	11.97116
516.913	12.59555
517.116	12.54916
517.318	12.23797
517.52	13.11533
517.722	12.95049
517.924	12.0608
518.126	12.83129
518.328	12.51742
518.529	13.3047
518.731	14.1877
518.933	12.82201
519.135	13.01512
519.337	13.64883
519.539	13.00122
519.741	12.07696
519.943	12.6137
520.145	12.52111
520.346	12.97327
520.548	12.47097
520.75	12.66424
520.952	12.52499
521.153	12.78169
521.355	12.89544
521.557	12.11325
521.759	12.70751
521.96	12.62258
522.162	12.09874
522.364	13.08014
522.565	12.25081
522.767	12.79852
522.969	13.09047
523.17	12.90988
523.372	12.75112
523.573	12.33625
523.775	12.39861
523.977	12.20269
524.178	13.45353
524.38	12.33493
524.581	12.90721
524.783	12.46191
524.984	12.99548
525.186	12.82667
525.387	13.40781
525.589	13.47879
525.79	13.77018
525.991	14.00065
526.193	14.5496
526.394	14.11447
526.596	14.95099
526.797	15.34845
526.998	15.06808
527.2	15.75584
527.401	17.78158
527.602	19.28519
527.803	22.14578
528.005	23.81581
528.206	25.82962
528.407	27.39976
528.608	28.09871
528.81	28.75281
529.011	28.50669
529.212	29.53106
529.413	27.98229
529.614	26.51547
529.815	24.95398
530.017	23.02127
530.218	20.47574
530.419	18.28213
530.62	17.36701
530.821	16.35781
531.022	14.80547
531.223	15.2008
531.424	14.80744
531.625	14.87372
531.826	14.47571
532.027	15.09865
532.228	16.49189
532.429	16.85695
532.63	17.52359
532.831	18.71965
533.032	19.07996
533.233	20.0624
533.433	19.83894
533.634	20.14014
533.835	19.54848
534.036	18.98287
534.237	18.17978
534.438	16.93026
534.638	15.49366
534.839	14.69376
535.04	14.09708
535.241	13.20664
535.441	13.93356
535.642	13.54049
535.843	12.99638
536.043	13.40857
536.244	13.61143
536.445	14.13402
536.645	14.81438
536.846	14.53247
537.047	15.02213
537.247	13.91167
537.448	13.58557
537.648	13.22101
537.849	12.94883
538.049	12.82205
538.25	13.14893
538.451	13.06769
538.651	12.43556
538.851	13.14686
539.052	13.51125
539.252	13.2018
539.453	12.75051
539.653	12.87937
539.854	12.72954
540.054	12.85063
540.254	14.80337
540.455	16.2494
540.655	16.81128
540.855	18.94872
541.056	20.35757
541.256	20.62518
541.456	21.87359
541.657	21.82242
541.857	22.5742
542.057	21.42221
542.257	20.72945
542.458	20.67164
542.658	19.81566
542.858	17.82148
543.058	17.29409
543.258	16.41805
543.458	14.79852
543.659	14.20377
543.859	14.42958
544.059	13.9986
544.259	13.3149
544.459	13.81616
544.659	13.09795
544.859	13.37788
545.059	12.90418
545.259	13.50702
545.459	13.25173
545.659	13.55469
545.859	13.1721
546.059	13.30428
546.259	12.70266
546.459	12.3679
546.659	12.56037
546.859	13.40313
547.059	13.28584
547.258	13.2442
547.458	13.27147
547.658	12.56664
547.858	12.48931
548.058	13.0918
548.258	12.77913
548.457	12.50331
548.657	14.30239
548.857	12.87821
549.057	13.36215
549.256	13.19213
549.456	12.61908
549.656	11.85563
549.855	13.89486
550.055	12.38535
550.255	13.72161
550.454	13.06448
550.654	13.1621
550.853	13.60693
551.053	13.12871
551.253	12.85994
551.452	13.01995
551.652	12.15854
551.851	11.87332
552.051	12.53326
552.25	12.38483
552.45	12.35638
552.649	12.45823
552.849	12.26551
553.048	12.74783
553.248	13.24148
553.447	12.1752
553.646	13.25561
553.846	14.29788
554.045	13.62517
554.244	11.9454
554.444	13.51416
554.643	12.30376
554.842	13.55644
555.042	13.9271
555.241	12.26654
555.44	11.98371
555.64	13.03348
555.839	13.74711
556.038	12.92262
556.237	12.16981
556.436	12.74516
556.636	12.7628
556.835	12.1414
557.034	13.53076
557.233	12.60199
557.432	11.58444
557.631	13.31857
557.83	12.43239
558.029	12.30422
558.228	11.93146
558.427	11.90759
558.626	12.78773
558.825	11.92763
559.024	12.35029
559.223	13.65526
559.422	12.31699
559.621	12.73828
559.82	10.93101
560.019	12.43274
560.218	12.28328
560.417	10.8737
560.616	12.0988
560.815	14.4845
561.014	11.49497
561.212	13.52877
561.411	12.5722
561.61	11.69636
561.809	12.2552
562.008	13.66165
562.206	12.24623
562.405	12.83958
562.604	12.43394
562.803	12.6828
563.001	12.36258
563.2	11.69942
563.399	12.688
563.597	11.76614
563.796	12.35142
563.995	11.75671
564.193	13.01806
564.392	12.24507
564.59	13.84547
564.789	11.21634
564.988	12.21154
565.186	12.69361
565.385	12.47427
565.583	12.39284
565.782	12.48624
565.98	12.37109
566.179	12.39098
566.377	12.0743
566.575	12.10496
566.774	13.57462
566.972	12.9942
567.171	13.92488
567.369	13.53738
567.567	12.71693
567.766	12.73886
567.964	11.26316
568.162	12.9091
568.361	13.35642
568.559	12.30434
568.757	12.67796
568.956	12.55138
569.154	12.42574
569.352	12.91321
569.55	12.30492
569.748	12.40835
569.947	11.90347
570.145	11.77577
570.343	11.7389
570.541	13.42948
570.739	11.62958
570.937	12.4554
571.135	12.75422
571.333	14.00477
571.532	13.70683
571.73	12.69096
571.928	13.102
572.126	12.83629
572.324	12.21893
572.522	13.31474
572.72	14.4947
572.918	12.59908
573.116	12.99642
573.313	12.40685
573.511	12.49015
573.709	12.09392
573.907	13.16229
574.105	12.27987
574.303	11.50669
574.501	11.61259
574.699	12.90944
574.896	12.78891
575.094	13.02798
575.292	11.75194
575.49	13.15046
575.688	12.40288
575.885	13.49312
576.083	14.1892
576.281	13.06752
576.478	12.04493
576.676	12.78174
576.874	11.45708
577.071	12.52371
577.269	13.8903
577.467	12.47323
577.664	12.44993
577.862	13.11405
578.059	11.70996
578.257	13.06275
578.455	12.08636
578.652	12.39245
578.85	11.00266
579.047	12.49636
579.245	12.1435
579.442	12.30622
579.64	12.03866
579.837	11.11414
580.034	14.23521
580.232	12.21372
580.429	11.31919
580.627	12.66827
580.824	13.31352
581.021	12.76761
581.219	11.92515
581.416	11.84146
581.613	13.32913
581.811	13.37457
582.008	11.63028
582.205	12.99969
582.402	12.53324
582.6	14.06519
582.797	12.31443
582.994	12.73306
583.191	13.01652
583.388	12.10187
583.586	12.96924
583.783	13.2712
583.98	11.49312
584.177	12.30297
584.374	10.23558
584.571	12.03391
584.768	12.07367
584.965	11.8002
585.162	12.88845
585.359	13.55463
585.556	12.40122
585.753	12.65612
585.95	11.32548
586.147	11.29557
586.344	12.57138
586.541	11.88793
586.738	11.35434
586.935	12.05
587.132	11.57647
587.329	12.91122
587.526	12.08145
587.722	16.35244
587.919	11.1017
588.116	12.48717
588.313	13.31233
588.51	14.05731
588.706	12.01663
588.903	12.67087
589.1	13.08514
589.297	14.55289
589.493	12.3591
589.69	12.74159
589.887	11.8716
590.083	11.56615
590.28	11.76936
590.477	13.09267
590.673	12.66167
590.87	13.45906
591.067	11.80648
591.263	12.65038
591.46	12.48324
591.656	12.07982
591.853	13.61987
592.049	11.51433
592.246	11.69458
592.442	13.08154
592.639	13.33363
592.835	11.44536
593.032	12.35513
593.228	11.06208
593.425	11.19132
593.621	11.03126
593.817	12.40312
594.014	11.56898
594.21	12.45431
594.406	13.16156
594.603	12.68697
594.799	11.81713
594.995	10.44188
595.192	13.25413
595.388	12.00968
595.584	11.96942
595.78	11.09129
595.977	14.58396
596.173	13.67818
596.369	12.07773
596.565	11.60817
596.761	11.34482
596.957	13.26686
597.154	11.88171
597.35	12.01284
597.546	11.8332
597.742	12.8714
597.938	12.77707
598.134	11.93957
598.33	12.61683
598.526	13.3874
598.722	12.62761
598.918	13.81908
599.114	12.81862
599.31	11.25667
599.506	12.15893
599.702	11.49937
599.898	12.38965
600.094	12.92113
600.29	12.79976
600.485	12.84429
600.681	11.45624
600.877	13.78522
601.073	12.12668
601.269	14.24807
601.465	13.47013
601.66	11.25089
601.856	10.60468
602.052	14.19491
602.248	12.06152
602.443	10.65801
602.639	11.1135
602.835	11.56884
603.03	11.49676
603.226	13.13421
603.422	11.58878
603.617	12.14023
603.813	12.08938
604.009	11.96458
604.204	13.31541
604.4	11.26051
604.595	13.30718
604.791	11.556
604.986	12.62146
605.182	11.87152
605.377	12.0465
605.573	12.18055
605.768	12.41697
605.964	12.97985
606.159	12.96518
606.355	13.18105
606.55	12.03281
606.746	13.13567
606.941	12.28318
607.136	14.04259
607.332	14.79797
607.527	11.13839
607.722	12.43515
607.918	11.94085
608.113	11.50939
608.308	13.11139
608.503	12.88713
608.699	12.77386
608.894	12.90031
609.089	11.85412
609.284	12.94896
609.479	12.34164
609.675	13.15343
609.87	12.55876
610.065	13.39546
610.26	13.72631
610.455	13.6117
610.65	12.86154
610.845	13.28765
611.04	13.76085
611.235	12.79366
611.43	12.97036
611.625	12.00114
611.82	14.45707
612.015	12.49807
612.21	14.4084
612.405	11.43682
612.6	14.53043
612.795	14.25568
612.99	13.53594
613.185	11.64359
613.38	12.01209
613.575	12.7509
613.77	15.67263
613.965	10.99229
614.159	11.9253
614.354	14.06525
614.549	13.58814
614.744	13.15025
614.938	11.40949
615.133	10.96236
615.328	14.0963
615.523	13.76317
615.717	15.4505
615.912	11.95067
616.107	12.63566
616.301	12.21173
616.496	11.72976
616.691	14.13303
616.885	13.25453
617.08	15.75672
617.274	13.55768
617.469	14.59474
617.664	13.2166
617.858	11.99988
618.053	12.74004
618.247	11.99544
618.442	10.01937
618.636	14.19364
618.831	11.59028
619.025	11.63298
619.219	15.91871
619.414	9.13553
619.608	12.19766
619.803	11.93988
619.997	14.95035
620.191	13.48304
620.386	12.86093
620.58	12.29169
620.774	10.48909
620.969	10.51761
621.163	12.45895
621.357	11.20792
621.551	12.11502
621.746	12.64454
621.94	11.92786
622.134	16.16118
622.328	14.79658
622.522	10.99923
622.716	13.61243
622.911	13.77686
623.105	13.61563
623.299	12.95383
623.493	15.92199
623.687	11.72888
623.881	11.82361
624.075	13.21253
624.269	13.78389
624.463	10.34183
624.657	10.55457
624.851	13.25682
625.045	13.39915
625.239	13.59116
625.433	12.10267
625.627	14.52903
625.821	11.97754
626.015	11.73136
626.209	12.72525
626.403	10.86469
626.596	13.25849
626.79	13.57327
626.984	11.39141
627.178	13.33136
627.372	13.33815
627.565	13.54721
627.759	11.18776
627.953	11.67426
628.147	13.23466
628.34	13.40531
628.534	15.14444
628.728	12.32068
628.921	13.73403
629.115	13.47653
629.309	13.68916
629.502	13.873
629.696	12.85203
629.89	12.72841
630.083	13.00202
630.277	12.87268
630.47	14.76438
630.664	12.38329
630.857	10.82177
631.051	13.68373
631.244	14.14851
631.438	13.73449
631.631	11.71701
631.825	14.50405
632.018	13.3438
632.212	14.95246
632.405	14.13903
632.598	11.57401
632.792	12.85259
632.985	9.87587
633.178	12.406
633.372	12.70982
633.565	12.33355
633.758	14.11204
633.952	11.68399
634.145	11.50991
634.338	12.4761
634.531	12.05378
634.724	11.75698
634.918	12.58353
635.111	12.2131
635.304	12.19114
635.497	15.89115
635.69	13.18089
635.883	14.3229
636.077	11.61836
636.27	13.1805
636.463	13.25155
636.656	13.05026
636.849	12.34868
637.042	13.21672
637.235	15.61859
637.428	13.86059
637.621	13.32302
637.814	14.69535
638.007	14.77397
638.2	14.60087
638.393	15.59377
638.586	10.99749
638.778	12.25721
638.971	12.60052
639.164	14.96367
639.357	13.29515
639.55	15.02382
639.743	14.08746
639.935	13.76856
640.128	16.23396
640.321	14.41343
640.514	13.51359
640.707	16.47562
640.899	13.91078
641.092	10.77106
641.285	28.43048
641.477	10.02546
641.67	16.76666
641.863	15.2527
642.055	13.42387
642.248	12.90046
642.441	12.53588
642.633	14.13997
642.826	14.63571
643.018	15.18178
643.211	16.23565
643.403	16.0794
643.596	16.61191
643.788	15.77386
643.981	12.47926
644.173	14.38753
644.366	12.60944
644.558	10.58019
644.751	14.81836
644.943	11.48526
645.135	15.8624
645.328	16.0763
645.52	14.44293
645.712	15.1992
645.905	18.32188
646.097	11.38327
646.289	13.54613
646.482	16.80678
646.674	12.12697
646.866	15.55654
647.058	14.11805
647.251	11.8172
647.443	12.5423
647.635	13.34461
647.827	11.65923
648.019	12.21586
648.211	12.98456
648.404	13.80467
648.596	16.31787
648.788	14.13992
648.98	13.79255
649.172	14.43403
649.364	14.10888
649.556	11.12249
649.748	17.89457
649.94	12.17504
650.132	14.90508
650.324	12.08216
650.516	12.45926
650.708	15.35689
650.9	11.7206
651.092	11.06279
651.284	11.62112
651.476	11.92537
651.667	15.09632
651.859	16.34024
652.051	13.49495
652.243	14.09631
652.435	13.29511
652.627	14.6818
652.818	14.59897
653.01	11.30097
653.202	12.40082
653.394	13.18924
653.585	14.42775
653.777	21.29445
653.969	16.36294
654.16	15.77129
654.352	12.29731
654.544	13.72643
654.735	15.71943
654.927	14.14131
655.118	16.2189
655.31	15.03596
655.502	15.94699
655.693	13.33773
655.885	14.72788
656.076	16.25527
656.268	14.35385
656.459	16.16524
656.651	16.37661
656.842	13.09238
657.034	12.6129
657.225	15.34066
657.416	16.4745
657.608	16.28199
657.799	13.98403
657.99	16.58096
658.182	12.94912
658.373	12.87394
658.564	16.29858
658.756	14.71131
658.947	13.83041
659.138	12.76131
659.33	13.4843
659.521	13.09946
659.712	14.02594
659.903	13.92055
660.094	13.341
660.286	11.77658
660.477	17.05565
660.668	15.65227
660.859	14.02383
661.05	12.14121
661.241	14.79531
661.432	15.03911
661.623	13.55285
661.814	13.40481
662.006	11.75545
662.197	14.59155
662.388	16.16805
662.579	14.81766
662.77	16.41585
662.96	19.32905
663.151	15.89631
663.342	11.15976
663.533	15.55339
663.724	14.58508
663.915	18.19651
664.106	14.64631
664.297	18.27356
664.488	15.75861
664.678	13.48146
664.869	15.87536
665.06	16.28215
665.251	14.96785
665.442	15.89513
665.632	12.9117
665.823	18.5069
666.014	9.2152
666.204	16.13279
666.395	17.28723
666.586	19.12748
666.776	16.27203
666.967	18.53977
667.158	15.12773
667.348	17.72522
667.539	12.92582
667.729	16.64973
667.92	13.65943
668.111	16.85446
668.301	16.41311
668.492	14.20807
668.682	15.27946
668.873	14.92818
669.063	12.95236
669.253	15.65086
669.444	17.801
669.634	15.02734
669.825	18.68223
670.015	17.92006
670.206	13.92448
670.396	19.42149
670.586	14.77617
670.777	16.26484
670.967	11.07847
671.157	14.57532
671.347	13.93656
671.538	18.24568
671.728	16.58699
671.918	19.41532
672.108	17.40655
672.299	14.68543
672.489	16.12465
672.679	13.68005
672.869	16.2569
673.059	20.32289
673.249	16.4846
673.44	13.14436
673.63	14.91214
673.82	17.4332
674.01	13.54814
674.2	16.45163
674.39	21.33223
674.58	16.94107
674.77	15.94871
674.96	15.05984
675.15	24.71468
675.34	17.93421
675.53	15.50372
675.72	14.60169
675.91	12.29722
676.099	19.93376
676.289	21.06844
676.479	17.81941
676.669	14.4953
676.859	16.8601
677.049	14.19063
677.238	15.79838
677.428	19.66708
677.618	16.90693
677.808	20.09791
677.997	17.05521
678.187	13.92949
678.377	15.95589
678.567	14.75727
678.756	14.87684
678.946	15.96906
679.136	13.30864
679.325	14.64724
679.515	14.11452
679.704	13.42977
679.894	18.01849
680.084	16.81635
680.273	18.82582
680.463	14.29524
680.652	14.41707
680.842	15.93041
681.031	18.07654
681.221	14.28249
681.41	17.21586
681.6	15.85948
681.789	17.39331
681.978	18.64193
682.168	16.78832
682.357	16.72443
682.547	17.25467
682.736	16.67559
682.925	19.28858
683.115	19.28072
683.304	18.05803
683.493	16.61118
683.682	17.49791
683.872	17.64999
684.061	18.87773
684.25	17.47919
684.439	22.74234
684.629	18.84596
684.818	25.05332
685.007	16.77153
685.196	16.44216
685.385	21.5133
685.574	17.74482
685.763	17.90117
685.952	17.95311
686.142	14.37657
686.331	20.70772
686.52	13.6782
686.709	22.03906
686.898	21.77158
687.087	19.2833
687.276	21.34292
687.465	20.47133
687.654	16.79832
687.842	21.04675
688.031	14.5081
688.22	21.39355
688.409	18.04963
688.598	17.93981
688.787	24.04514
688.976	18.04224
689.165	22.96976
689.353	16.91646
689.542	19.22904
689.731	20.73611
689.92	23.73267
690.108	20.0262
690.297	17.03149
690.486	18.46183
690.675	19.49246
690.863	21.98692
691.052	21.7919
691.241	18.62674
691.429	19.07896
691.618	21.58675
691.806	15.09812
691.995	17.43864
692.184	18.15823
692.372	17.345
692.561	18.5778
692.749	19.1535
692.938	27.36748
693.126	19.7979
693.315	17.89791
693.503	20.72329
693.692	21.44264
693.88	21.42313
694.068	24.5798
694.257	19.43244
694.445	20.65377
694.634	13.77652
694.822	20.99366
695.01	21.84354
695.199	25.28039
695.387	23.15319
695.575	22.35309
695.763	18.47414
695.952	18.15274
696.14	14.7756
696.328	17.23539
696.516	18.86999
696.705	19.92051
696.893	19.28109
697.081	14.52932
697.269	21.37309
697.457	15.80848
697.645	15.49058
697.833	20.84226
698.021	16.37398
698.21	17.28043
698.398	18.03634
698.586	15.70021
698.774	15.29794
698.962	18.50508
699.15	15.93563
699.338	14.63617
699.526	19.86752
699.714	16.80281
699.901	16.74905
700.089	20.47103
700.277	16.59576
700.465	18.1035
700.653	20.42363
700.841	19.12945
701.029	16.80219
701.217	22.98233
701.404	19.03906
701.592	23.13272
701.78	25.60145
701.968	18.18002
702.155	18.49733
702.343	15.92008
702.531	23.71556
702.718	20.76981
702.906	18.10151
703.094	17.86469
703.281	23.6768
703.469	19.21494
703.657	22.92922
703.844	29.55204
704.032	26.18408
704.219	18.84069
704.407	22.31756
704.595	24.8175
704.782	21.04476
704.97	20.20525
705.157	19.67995
705.345	27.23152
705.532	32.82811
705.719	24.73795
705.907	26.99026
706.094	23.48513
706.282	30.08536
706.469	24.13626
706.656	25.1297
706.844	23.68714
707.031	28.44056
707.218	26.93691
707.406	30.72455
707.593	28.14852
707.78	28.09953
707.968	26.31221
708.155	23.82565
708.342	28.83698
708.529	28.34399
708.716	27.71354
708.904	32.34876
709.091	28.71244
709.278	22.84478
709.465	33.00424
709.652	31.34428
709.839	30.22916
710.026	26.47032
710.213	20.88293
710.4	26.37027
710.587	27.64389
710.774	28.50945
710.961	29.20759
711.148	25.88934
711.335	28.9674
711.522	24.92732
711.709	27.74493
711.896	32.9352
712.083	29.27775
712.27	23.43427
712.457	27.12011
712.644	21.43202
712.831	33.47384
713.017	27.08538
713.204	28.92083
713.391	23.46216
713.578	28.94479
713.765	30.50243
713.951	26.24418
714.138	35.95022
714.325	25.82896
714.512	24.47298
714.698	20.53734
714.885	29.30871
715.072	23.69555
715.258	23.88104
715.445	21.09861
715.631	27.91045
715.818	14.12438
716.005	21.17859
716.191	25.85571
716.378	21.15289
716.564	26.1969
716.751	19.56631
716.937	21.1441
717.124	26.23823
717.31	19.7364
717.497	31.27588
717.683	20.3312
717.869	31.69686
718.056	21.19089
718.242	25.29936
718.429	22.43568
718.615	18.40894
718.801	23.1082
718.988	27.74269
719.174	24.89371
719.36	22.64519
719.547	28.19536
719.733	24.45212
719.919	24.48662
720.105	24.60856
720.291	23.2949
720.478	24.75749
720.664	23.02501
720.85	21.24871
721.036	35.12001
721.222	30.68414
721.408	23.68311
721.595	31.75509
721.781	30.19722
721.967	28.12081
722.153	30.46797
722.339	26.08413
722.525	25.5115
722.711	19.25492
722.897	18.31674
723.083	22.22623
723.269	28.92671
723.455	37.32514
723.641	42.54436
723.827	24.41777
724.012	26.33725
724.198	24.6224
724.384	30.09237
724.57	26.26459
724.756	18.43737
724.942	16.64925
725.127	29.42493
725.313	30.58549
725.499	29.98983
725.685	33.1097
725.87	26.44129
726.056	20.28125
726.242	30.34837
726.428	18.48159
726.613	28.49744
726.799	22.8509
726.985	21.00302
727.17	17.55697
727.356	34.41105
727.541	20.99378
727.727	24.82949
727.913	28.48367
728.098	22.52352
728.284	27.65029
728.469	20.16255
728.655	22.07901
728.84	29.81733
729.026	27.7379
729.211	28.332
729.397	26.81354
729.582	28.41178
729.767	24.61056
729.953	26.74202
730.138	30.33474
730.323	15.42865
730.509	20.02119
730.694	33.11564
730.879	28.54709
731.065	26.04312
731.25	35.73365
731.435	27.72764
731.621	19.58938
731.806	22.64575
731.991	26.46519
732.176	18.84557
732.361	32.68669
732.547	26.91756
732.732	19.02931
732.917	36.0222
733.102	20.25639
733.287	22.76963
733.472	25.01456
733.657	25.70723
733.842	19.1614
734.027	22.12875
734.212	23.89219
734.397	22.04255
734.582	25.64861
734.767	30.12005
734.952	31.79526
735.137	14.468
735.322	32.28549
735.507	26.64617
735.692	27.04711
735.877	36.13527
736.062	35.20589
736.247	27.89304
736.431	25.53442
736.616	31.50471
736.801	27.75953
736.986	25.25083
737.171	22.04288
737.355	20.41609
737.54	32.86698
737.725	26.34423
737.909	40.32513
738.094	23.45828
738.279	29.67155
738.463	25.18077
738.648	29.42208
738.833	27.89223
739.017	37.9276
739.202	25.23502
739.386	25.07793
739.571	21.19082
739.756	30.00475
739.94	26.33393
740.125	29.45405
740.309	22.91461
740.494	30.86128
740.678	27.34229
740.863	28.66564
741.047	27.06644
741.231	34.72694
741.416	23.49618
741.6	34.56688
741.785	22.24285
741.969	31.49093
742.153	34.41367
742.338	17.27692
742.522	27.12099
742.706	31.49106
742.89	20.31713
743.075	26.6336
743.259	33.95321
743.443	32.77839
743.627	34.17447
743.812	39.29891
743.996	18.00453
744.18	25.75604
744.364	24.93986
744.548	40.86889
744.732	25.83067
744.916	32.32601
745.1	31.04517
745.285	25.58748
745.469	30.79097
745.653	36.19998
745.837	21.32037
746.021	41.08444
746.205	34.93984
746.389	28.52663
746.573	25.66191
746.757	36.14529
746.94	24.99256
747.124	34.64827
747.308	21.8078
747.492	34.0872
747.676	23.81428
747.86	43.19232
748.044	25.12916
748.227	18.7537
748.411	51.63006
748.595	28.06116
748.779	23.23471
748.963	30.40352
749.146	28.44013
749.33	23.60429
749.514	23.21536
749.697	34.4591
749.881	24.31635
750.065	21.97872
750.248	29.67818
750.432	42.54526
750.616	27.68578
750.799	21.79771
750.983	44.21579
751.166	43.50564
751.35	19.59768
751.533	34.38258
751.717	37.8309
751.9	37.44881
752.084	25.78491
752.267	23.78127
752.451	23.73241
752.634	28.77715
752.818	31.8157
753.001	33.8692
753.184	35.54797
753.368	31.07365
753.551	9.387
753.734	24.67314
753.918	42.17731
754.101	25.58553
754.284	33.47892
754.467	26.08881
754.651	24.08721
754.834	24.40721
755.017	36.34027
755.2	35.89638
755.384	21.78021
755.567	32.84944
755.75	34.75965
755.933	26.5205
756.116	34.35078
756.299	25.1187
756.482	22.97898
756.665	32.72418
756.848	28.38901
757.032	32.43233
757.215	20.12132
757.398	23.76661
757.581	24.2241
757.764	46.95525
757.947	28.68528
758.129	33.96161
758.312	11.97883
758.495	27.45823
758.678	28.54516
758.861	27.23191
759.044	40.59193
759.227	23.21753
759.41	23.16694
759.592	33.64486
759.775	26.98534
759.958	34.59829
760.141	21.96437
760.324	44.94067
760.506	37.8194
760.689	33.4544
760.872	44.06793
761.054	30.83084
761.237	28.05837
761.42	31.08782
761.602	34.84644
761.785	31.77586
761.968	36.85073
762.15	41.6301
762.333	27.77709
762.515	31.91884
762.698	26.85116
762.88	35.22676
763.063	32.04831
763.245	36.38899
763.428	23.58951
763.61	26.16516
763.793	22.2118
763.975	31.29133
764.158	27.28021
764.34	25.49998
764.522	23.48965
764.705	27.60464
764.887	38.81938
765.069	19.71107
765.252	32.24484
765.434	33.39202
765.616	29.67382
765.799	24.06522
765.981	32.99756
766.163	24.75759
766.345	37.00405
766.528	25.65716
766.71	16.27985
766.892	29.23125
767.074	37.59328
767.256	27.70033
767.438	41.68042
767.62	31.36608
767.802	46.32768
767.985	34.0238
768.167	42.71427
768.349	25.02037
768.531	34.18261
768.713	30.77215
768.895	35.91909
769.077	33.15473
769.259	49.23941
769.441	65.67086
769.623	35.43554
769.804	40.45719
769.986	39.32754
770.168	47.38126
770.35	58.16462
770.532	43.76212
770.714	49.48832
770.896	48.3311
771.077	21.59729
771.259	50.40322
771.441	43.61721
771.623	53.19822
771.804	63.91964
771.986	25.65421
772.168	34.7987
772.35	50.01495
772.531	63.99079
772.713	42.8806
772.894	54.32798
773.076	40.7909
773.258	36.79996
773.439	56.15905
773.621	62.52798
773.802	31.56931
773.984	36.51579
774.166	45.49199
774.347	58.04647
774.529	53.82592
774.71	22.79821
774.891	39.32666
775.073	36.4768
775.254	54.50778
775.436	34.57783
775.617	67.37815
775.799	36.56176
775.98	56.9616
776.161	61.30236
776.343	64.67167
776.524	41.18412
776.705	38.36553
776.886	23.58654
777.068	43.02093
777.249	91.71622
777.43	66.82021
777.611	30.55457
777.793	39.07949
777.974	64.32421
778.155	35.8823
778.336	31.99018
778.517	71.15758
778.698	33.65505
778.879	21.27017
779.061	14.63822
779.242	47.62632
779.423	46.82766
779.604	36.06878
779.785	40.82395
779.966	43.17594
780.147	54.43991
780.328	54.77457
780.509	74.84445
780.69	54.92539
780.871	37.6209
781.051	27.44612
781.232	44.44836
781.413	45.27726
781.594	38.25451
781.775	37.04791
781.956	34.62419
782.137	21.42341
782.317	37.32903
782.498	44.68491
782.679	40.81836
782.86	46.13214
783.04	35.67156
783.221	45.14139
783.402	65.52251
783.583	42.50061
783.763	52.56326
783.944	35.96536
784.124	25.74978
784.305	63.0988
784.486	52.49193
784.666	40.8044
784.847	27.36722
785.027	85.97048
785.208	33.35189
785.388	36.11223
785.569	34.38531
785.749	40.27017
785.93	37.16805
786.11	25.72003
786.291	48.01965
786.471	45.45303
786.652	53.02475
786.832	40.65945
787.012	44.52011
787.193	30.13598
787.373	44.34292
787.553	37.60534
787.734	46.22283
787.914	38.24081
788.094	54.12317
788.275	45.79029
788.455	37.8101
788.635	29.20889
788.815	45.72384
788.995	30.93809
789.176	26.11532
789.356	33.45
789.536	40.25201
789.716	48.16344
789.896	34.35542
790.076	35.47775
790.256	46.15812
790.436	18.67307
790.616	31.78506
790.796	45.54057
790.976	38.16116
791.156	33.55545
791.336	47.71715
791.516	46.08621
791.696	36.86196
791.876	26.23587
792.056	43.70529
792.236	55.10472
792.416	51.62698
792.596	47.00575
792.776	48.02912
792.956	50.72129
793.135	63.59473
793.315	29.74391
793.495	55.73313
793.675	52.27099
793.854	52.90661
794.034	54.57265
794.214	30.69717
794.394	52.99498
794.573	57.15926
794.753	44.33401
794.933	32.62312
795.112	45.46661
795.292	54.89933
795.472	63.16445
795.651	28.77647
795.831	42.90138
796.01	38.64592
796.19	40.08873
796.369	43.07174
796.549	48.33565
796.728	40.2536
796.908	27.48144
797.087	31.18621
797.267	40.19223
797.446	29.21708
797.626	48.39167
797.805	48.24037
797.984	34.41488
798.164	51.34628
798.343	34.69983
798.522	45.01051
798.702	45.02182
798.881	30.2181
799.06	38.96283
799.239	22.51821
799.419	30.66868
799.598	62.839
799.777	48.14417
799.956	56.42351
800.136	39.72291
800.315	32.65042
800.494	45.69596
800.673	55.94809
800.852	50.97108
801.031	56.6694
801.21	49.23138
801.389	37.88742
801.568	45.27218
801.747	65.99858
801.926	43.61409
802.105	60.18374
802.284	35.36922
802.463	64.73898
802.642	45.03765
802.821	45.07821
803	60.89912
803.179	54.26253
803.358	56.73646
803.537	34.41145
803.716	42.59246
803.895	36.34375
804.073	41.54252
804.252	33.69592
804.431	49.35553
804.61	41.65248
804.789	53.46988
804.967	37.72056
805.146	37.20527
805.325	72.1088
805.503	47.16506
805.682	28.20275
805.861	87.59369
806.039	61.86416
806.218	38.43685
806.397	45.25166
806.575	42.27498
806.754	46.60338
806.932	32.27207
807.111	56.8582
807.289	53.73478
807.468	44.90771
807.646	54.74041
807.825	48.41061
808.003	45.7728
808.182	55.80695
808.36	44.73774
808.539	34.56566
808.717	63.06197
808.895	35.23245
809.074	49.26505
809.252	45.00173
809.43	52.28277
809.609	59.48221
809.787	67.81151
809.965	43.13655
810.144	45.37948
810.322	43.081
810.5	48.65732
810.678	38.35456
810.856	73.77745
811.035	59.30374
811.213	54.27906
811.391	64.07888
811.569	48.2582
811.747	97.25792
811.925	60.96772
812.103	37.64855
812.281	43.07408
812.459	70.89381
812.637	69.11219
812.816	55.94876
812.994	76.39784
813.171	65.11918
813.349	51.42077
813.527	60.68517
813.705	63.9147
813.883	80.87731
814.061	58.98835
814.239	71.35287
814.417	77.71588
814.595	54.80443
814.773	51.24829
814.95	47.84054
815.128	53.61749
815.306	49.84008
815.484	44.83419
815.662	33.98487
815.839	32.77133
816.017	39.28445
816.195	63.52318
816.372	42.01136
816.55	56.54165
816.728	69.83392
816.905	44.5335
817.083	70.88533
817.261	45.14187
817.438	90.28429
817.616	73.74125
817.793	39.18078
817.971	58.42094
818.148	57.93006
818.326	64.79391
818.503	50.747
818.681	72.11707
818.858	43.72724
819.036	46.96882
819.213	49.73697
819.391	39.12795
819.568	39.92852
819.745	34.98794
819.923	57.60544
820.1	43.03621
820.277	36.60255
820.455	42.66833
820.632	44.39957
820.809	48.19172
820.986	32.95261
821.164	28.97399
821.341	25.85483
821.518	36.81256
821.695	28.2201
821.872	26.48929
822.05	23.90942
822.227	20.5657
822.404	21.90458
822.581	24.41654
822.758	21.98761
822.935	22.26326
823.112	24.47091
823.289	21.48787
823.466	24.69981
823.643	23.56442
823.82	26.69999
823.997	24.93584
824.174	28.12158
824.351	34.58112
824.528	33.48604
824.705	30.47635
824.882	32.73932
825.059	40.39506
825.236	31.17005
825.412	32.13873
825.589	36.92339
825.766	48.98936
825.943	33.7482
826.12	37.80745
826.296	29.74525
826.473	35.09357
826.65	34.85189
826.827	39.38116
827.003	28.98091
827.18	31.57988
827.357	34.73055
827.533	30.28542
827.71	20.55371
827.887	27.84968
828.063	31.48915
828.24	27.12455
828.416	34.06202
828.593	30.0964
828.769	39.15794
828.946	38.98984
829.122	40.22269
829.299	39.09596
829.475	28.6857
829.652	38.66423
829.828	60.50513
830.005	40.25272
830.181	54.46801
830.357	42.3164
830.534	54.88721
830.71	42.55761
830.886	54.51224
831.063	54.63537
831.239	64.18612
831.415	33.01523
831.592	65.77855
831.768	44.16213
831.944	40.37129
832.12	71.39
832.296	65.16369
832.473	56.09643
832.649	40.55383
832.825	56.15469
833.001	36.54306
833.177	49.66474
833.353	45.80113
833.529	29.91612
833.705	43.06317
833.881	29.60936
834.058	30.01019
834.234	32.4601
834.41	31.93078
834.586	27.04376
834.761	29.49723
834.937	33.01744
835.113	34.39356
835.289	30.32183
835.465	34.91125
835.641	32.02819
835.817	34.54444
835.993	53.94105
836.169	32.63367
836.344	44.55883
836.52	50.18624
836.696	46.93491
836.872	38.67593
837.048	95.60551
837.223	43.68408
837.399	73.78743
837.575	59.27361
837.75	55.89341
837.926	77.91033
838.102	107.32397
838.277	90.73769
838.453	121.05489
838.628	118.24157
838.804	50.23118
838.98	105.60189
839.155	59.45741
839.331	74.77598
839.506	57.56052
839.682	57.89982
839.857	76.06082
840.033	88.57432
840.208	44.84856
840.384	27.20202
840.559	46.54768
840.734	65.42522
840.91	84.4298
841.085	53.83495
841.26	53.69426
841.436	48.99365
841.611	50.32539
841.786	73.12994
841.962	93.29008
842.137	59.12321
842.312	41.9348
842.487	54.83955
842.663	43.53071
842.838	57.81764
843.013	160.06537
843.188	82.75273
843.363	65.07288
843.538	136.45502
843.714	132.09353
843.889	130.25365
844.064	148.97205
844.239	120.19068
844.414	133.74092
844.589	91.41321
844.764	171.27116
844.939	165.88814
845.114	183.87521
845.289	171.40478
845.464	232.26903
845.639	153.48358
845.814	87.15086
845.989	94.32569
846.163	120.24764
846.338	122.30453
846.513	170.20888
846.688	107.10475
846.863	118.79226
847.038	104.84776
847.212	113.7592
847.387	124.63793
847.562	127.7859
847.737	152.7837
847.911	63.82467
848.086	79.63594
848.261	221.95484
848.435	105.88515
848.61	159.60552
848.785	86.00475
848.959	163.03525
849.134	224.26735
849.308	225.5977
849.483	126.19927
849.658	190.96898
849.832	108.76076
850.007	95.78727
850.181	254.56923
850.356	100.48253
850.53	244.07413
850.705	82.1073
850.879	55.12876
851.053	115.49001
851.228	106.54841
851.402	134.64672
851.577	170.62134
851.751	188.17751
851.925	132.32564
852.099	64.82506
852.274	90.14568
852.448	112.91358
852.622	132.3525
852.797	121.83114
852.971	117.42939
853.145	128.63172
853.319	353.50519
853.493	182.69356
853.668	103.92792
853.842	227.66245
854.016	186.4858
854.19	212.49677
854.364	133.13417
854.538	141.56032
854.712	185.86772
854.886	118.72664
855.06	110.03881
855.234	46.6025
855.408	201.2457
855.582	172.55207
855.756	173.40781
855.93	215.35921
856.104	155.98503
856.278	174.01205
856.452	121.70035
856.626	172.19906
856.8	264.92766
856.973	163.57832
857.147	149.42723
857.321	154.2336
857.495	184.36963
857.669	118.52806
857.842	111.61007
858.016	176.83692
858.19	104.13969
858.364	292.18826
858.537	112.98093
858.711	136.29168
858.885	116.52068
859.058	104.36056
859.232	64.48509
859.405	74.16551
859.579	172.81569
859.753	143.772
859.926	97.6092
860.1	76.52355
860.273	126.1529
860.447	212.64253
860.62	112.3536
860.794	253.92174
860.967	149.53802
861.141	187.74412
861.314	267.01694
861.487	164.34277
861.661	205.33179
861.834	211.0891
862.008	190.16862
862.181	137.9622
862.354	130.26919
862.528	155.57046
862.701	110.23603
862.874	81.77972
863.047	121.37814
863.221	119.16134
863.394	59.69996
863.567	211.0665
863.74	54.03956
863.913	176.19891
864.087	145.11463
864.26	180.9508
864.433	126.7446
864.606	226.43175
864.779	133.27761
864.952	72.21774
865.125	110.87069
865.298	123.42238
865.471	136.23093
865.644	262.66694
865.817	218.3494
865.99	176.37664
866.163	207.30188
866.336	118.13006
866.509	132.62453
866.682	109.44917
866.855	197.66191
867.028	84.14752
867.2	166.93216
867.373	53.44966
867.546	146.45502
867.719	267.52588
867.892	167.67365
868.064	90.28408
868.237	159.61549
868.41	132.85639
868.583	79.39382
868.755	86.27412
868.928	133.90139
869.101	275.71347
869.273	193.92047
869.446	174.45807
869.619	190.42357
869.791	125.8384
869.964	195.286
870.136	180.27753
870.309	148.81773
870.481	138.8205
870.654	75.27127
870.826	153.00157
870.999	116.37916
871.171	182.53007
871.344	113.56235
871.516	137.7211
871.689	105.2393
871.861	148.63702
872.033	96.59615
872.206	125.22163
872.378	188.69642
872.55	123.74742
872.723	84.3546
872.895	126.38205
873.067	190.3216
873.24	216.34334
873.412	115.82686
873.584	125.3903
873.756	122.30154
873.928	156.53313
874.101	156.64697
874.273	170.82132
874.445	59.02982
874.617	83.0316
874.789	146.25701
874.961	120.44681
875.133	168.25188
875.305	136.52458
875.477	93.37083
875.649	77.70837
875.821	95.71027
875.993	226.90518
876.165	86.17871
876.337	154.65891
876.509	119.1006
876.681	150.37415
876.853	150.03397
877.025	144.18586
877.197	104.28652
877.369	92.01837
877.541	183.08614
877.712	61.57494
877.884	91.05368
878.056	172.02275
878.228	91.37618
878.4	156.45744
878.571	91.41386
878.743	71.15631
878.915	149.25551
879.086	87.84301
879.258	109.84536
879.43	101.46234
879.601	87.78882
879.773	94.70505
879.945	28.52464
880.116	44.75083
880.288	31.02287
880.459	32.91742
880.631	26.89455
880.802	31.41338
880.974	30.95324
881.145	23.38172
881.317	29.33291
881.488	24.29352
881.66	26.49284
881.831	24.70988
882.002	32.05084
882.174	25.61392
882.345	30.56444
882.517	21.33735
882.688	34.25767
882.859	30.99805
883.03	44.67588
883.202	42.68903
883.373	39.51842
883.544	39.01216
883.715	60.70536
883.887	51.90288
884.058	47.03618
884.229	63.4031
884.4	63.76845
884.571	70.19033
884.742	62.45033
884.914	68.86455
885.085	91.50166
885.256	110.25735
885.427	92.76534
885.598	107.77212
885.769	113.22517
885.94	110.39162
886.111	78.14776
886.282	129.01615
886.453	103.38587
886.624	76.1354
886.795	120.20811
886.966	107.99275
887.136	137.83974
887.307	91.11504
887.478	166.6853
887.649	144.57028
887.82	150.78619
887.991	117.19158
888.161	165.62235
888.332	160.46297
888.503	83.40559
888.674	209.18245
888.844	226.93069
889.015	178.82293
889.186	87.34224
889.356	209.67422
889.527	84.56136
889.698	362.71232
889.868	119.35097
890.039	153.88379
890.209	134.04656
890.38	176.92301
890.551	153.62535
890.721	226.93757
890.892	181.69991
891.062	125.33623
891.233	159.94309
891.403	126.92731
891.574	101.14581
891.744	130.44081
891.914	169.92242
892.085	149.80265
892.255	56.26565
892.425	211.59584
892.596	168.78987
892.766	159.32628
892.936	215.64498
893.107	183.31565
893.277	105.17434
893.447	76.55723
893.618	60.30156
893.788	120.59298
893.958	67.44761
894.128	73.04809
894.298	75.33132
894.468	103.27587
894.639	49.82013
894.809	39.05283
894.979	56.33173
895.149	64.34221
895.319	53.76531
895.489	75.86792
895.659	89.28413
895.829	63.89086
895.999	63.8872
896.169	51.75623
896.339	63.86148
896.509	117.43685
896.679	136.5907
896.849	131.52739
897.019	181.05594
897.189	137.89214
897.358	128.95974
897.528	184.30097
897.698	76.99286
897.868	173.22486
898.038	275.42243
898.208	267.30289
898.377	91.80467
898.547	277.68533
898.717	415.46612
898.886	176.66008
899.056	254.94111
899.226	390.84959
899.395	245.91288
899.565	297.39249
899.735	206.95814
899.904	337.45355
900.074	280.29304
900.244	140.32382
900.413	489.89593
900.583	118.25831
900.752	185.39877
900.922	308.36641
901.091	44.24479
901.261	270.49893
901.43	249.32756
901.599	255.65395
901.769	551.68794
901.938	294.66123
902.108	291.97309
902.277	359.50282
902.446	109.72153
902.616	117.20034
902.785	183.40899
902.954	281.89091
903.124	195.70571
903.293	162.27498
903.462	90.73743
903.631	119.72367
903.801	88.6264
903.97	51.57655
904.139	84.02475
904.308	65.84126
904.477	52.69357
904.646	35.7762
904.816	51.59439
904.985	71.52491
905.154	104.9802
