Data from WindowProjectSample_Transmission__63__00063__008458810583623566.txt Node

Date: Mon May 05 18:29:32 EDT 2025
User: jessi
Spectrometer: SR400872
Trigger mode: 0
Integration Time (sec): 5.000010E-1
Scans to average: 20
Electric dark correction enabled: true
Nonlinearity correction enabled: true
Boxcar width: 0
XAxis mode: Wavelengths
Number of Pixels in Spectrum: 3648
>>>>>Begin Spectral Data<<<<<
184.909	20880.70931
185.132	-5088.75064
185.355	-3072.82569
185.578	-18145.06411
185.801	1880.6967
186.024	9904.44564
186.247	-1837.89463
186.47	1218.58247
186.693	431.17609
186.916	267.64086
187.139	-3677.50781
187.362	3634.18988
187.585	4281.09203
187.808	3467.70612
188.031	0.78033
188.254	-58050.88177
188.476	-591.56006
188.699	6021.42784
188.922	551.92579
189.145	-15273.13076
189.368	-741.39195
189.591	-1270.42689
189.813	3068.71361
190.036	-45825.63641
190.259	-825.53918
190.482	-4325.26352
190.705	6973.20706
190.927	-2524.71169
191.15	13656.34795
191.373	3302.92278
191.595	-8363.15177
191.818	-4006.78755
192.041	-6085.19526
192.263	-3454.01535
192.486	-764.41512
192.709	-3801.77711
192.931	7541.4695
193.154	-27925.28898
193.377	-2764.73752
193.599	-2582.19321
193.822	-9370.34182
194.044	-1840.92299
194.267	1217.43794
194.489	304.26042
194.712	-44203.85297
194.934	-31837.64121
195.157	1252.92389
195.379	1352.11389
195.602	-7230.2937
195.824	-1297.74912
196.047	-7978.19459
196.269	2646.90908
196.492	-6619.33385
196.714	28501.49279
196.936	-8162.84038
197.159	-1164.24223
197.381	1113.59295
197.604	428.82336
197.826	12056.91676
198.048	-11133.8656
198.271	-2703.05786
198.493	7684.14146
198.715	2313.87117
198.938	-527.24453
199.16	6670.10152
199.382	-100989.55055
199.604	2749.75388
199.827	-1025.34949
200.049	-2896.29312
200.271	14097.09979
200.493	1233.80205
200.715	-38390.97072
200.938	-6120.78198
201.16	-4261.01379
201.382	21160.55821
201.604	2365.39717
201.826	2243.17666
202.048	-1918.14117
202.27	-1961.39699
202.492	-35915.55097
202.715	3011.5056
202.937	-4487.99973
203.159	-6387.27249
203.381	1426.78926
203.603	6814.641
203.825	6751.20841
204.047	2359.95021
204.269	-2739.39875
204.491	2101.69022
204.713	6019.34395
204.935	-468065.28054
205.156	1088.51225
205.378	-2852.18218
205.6	1622.01725
205.822	150176.35453
206.044	-1049.72692
206.266	1481.78146
206.488	4561.6257
206.71	-5319.53471
206.932	1089.35059
207.153	12320.33301
207.375	-6550.12852
207.597	-37939.54114
207.819	-2802.52173
208.041	2400.89591
208.262	448.10025
208.484	645.96805
208.706	-786.36281
208.927	-909.67381
209.149	551.02664
209.371	-2924.04213
209.593	-236.44512
209.814	-844.29115
210.036	562.73745
210.258	-587.4949
210.479	1682.09481
210.701	1636.65625
210.922	3400.35325
211.144	-3971.88406
211.366	2088.92948
211.587	7442.85236
211.809	-8227.34628
212.03	2248.45191
212.252	453.6488
212.473	1915.19497
212.695	-7048.41074
212.916	2930.30187
213.138	-637.66463
213.359	3747.68004
213.581	5401.9736
213.802	-777.14894
214.024	1079.50374
214.245	2050.09887
214.466	2414.1443
214.688	-3203.55774
214.909	-1170.1874
215.131	-1726.21567
215.352	-3027.65306
215.573	14573.94488
215.795	5121.66386
216.016	5250.99301
216.237	816.21184
216.459	3556.08807
216.68	1753.59214
216.901	4818.09649
217.122	-3320.03351
217.344	-11845.46138
217.565	3470.11441
217.786	9049.31863
218.007	15259.98127
218.228	-674.91209
218.45	5681.9923
218.671	819.68445
218.892	36652.53317
219.113	1513.60213
219.334	-339.81545
219.555	9819.04621
219.776	3049.92624
219.997	22039.12174
220.219	2814.73201
220.44	-11284.49732
220.661	446.03654
220.882	1440.10109
221.103	-1143.03354
221.324	2313.56567
221.545	2285.22234
221.766	-9171.75352
221.987	1024.66008
222.208	1672.29703
222.429	4326.2072
222.65	177.6198
222.87	17392.87936
223.091	733.40268
223.312	625.48037
223.533	1284.46313
223.754	1464.20937
223.975	1306.75588
224.196	1948.99052
224.417	1354.07086
224.637	601.99721
224.858	16.9962
225.079	1095.33759
225.3	614.18761
225.521	3756.2082
225.741	472.79947
225.962	503.83088
226.183	152.97583
226.404	663.50385
226.624	417.33399
226.845	647.77175
227.066	413.29686
227.286	238.98394
227.507	133.21185
227.728	114.62232
227.948	241.86163
228.169	75.08103
228.389	84.46328
228.61	46.20144
228.831	63.19174
229.051	4.16609
229.272	39.16746
229.492	57.59109
229.713	13.63723
229.933	38.72108
230.154	30.91689
230.374	53.36572
230.595	35.53965
230.815	22.81853
231.036	37.95834
231.256	-8.06907
231.477	68.25192
231.697	36.58362
231.917	42.31526
232.138	55.0142
232.358	113.91488
232.579	100.0998
232.799	14.27064
233.019	100.62094
233.24	113.38816
233.46	38.11925
233.68	63.83627
233.901	44.07174
234.121	28.82954
234.341	13.32924
234.561	-6.51413
234.782	21.7949
235.002	66.41285
235.222	-3.06035
235.442	63.87521
235.662	32.38963
235.883	62.12771
236.103	49.33468
236.323	38.52062
236.543	30.4659
236.763	41.36354
236.983	45.59502
237.203	40.59827
237.423	62.07907
237.643	86.76821
237.864	73.02603
238.084	17.23853
238.304	26.19149
238.524	44.78778
238.744	40.30068
238.964	73.43057
239.184	63.71355
239.404	65.31315
239.624	34.06713
239.843	58.74114
240.063	36.44499
240.283	21.8509
240.503	26.11419
240.723	25.62518
240.943	14.49859
241.163	19.95336
241.383	14.31708
241.603	7.0688
241.822	10.20495
242.042	5.75947
242.262	7.99903
242.482	9.22475
242.702	10.45644
242.921	2.83363
243.141	6.59233
243.361	6.39188
243.581	9.19502
243.8	7.41099
244.02	5.14737
244.24	9.45492
244.459	9.04797
244.679	17.67786
244.899	10.70687
245.118	13.28696
245.338	12.48793
245.558	13.42253
245.777	8.26706
245.997	10.45041
246.216	9.94243
246.436	6.05355
246.655	4.80007
246.875	3.13289
247.094	6.08924
247.314	2.14235
247.533	3.60935
247.753	4.24055
247.972	3.44743
248.192	1.12445
248.411	1.81399
248.631	3.4417
248.85	4.64294
249.07	3.71995
249.289	5.94037
249.508	4.88664
249.728	6.74327
249.947	6.83711
250.166	8.74883
250.386	3.9755
250.605	7.05583
250.824	10.80865
251.044	7.52202
251.263	28.70612
251.482	14.39022
251.701	11.38236
251.921	0.23449
252.14	3.16307
252.359	4.1802
252.578	10.04448
252.798	3.36476
253.017	8.60675
253.236	3.85874
253.455	5.95682
253.674	10.01116
253.893	4.84107
254.112	7.15822
254.331	11.41341
254.551	8.176
254.77	3.06875
254.989	13.12163
255.208	9.85658
255.427	13.95481
255.646	11.59602
255.865	21.70624
256.084	9.09251
256.303	9.84283
256.522	13.07985
256.741	3.03159
256.96	3.34437
257.179	7.46559
257.397	10.55268
257.616	5.11211
257.835	5.8726
258.054	14.93769
258.273	10.49928
258.492	11.3978
258.711	6.39135
258.93	3.14261
259.148	4.73652
259.367	4.60448
259.586	5.55487
259.805	2.34262
260.023	5.27555
260.242	3.92908
260.461	2.73663
260.68	1.30261
260.898	4.46757
261.117	1.41434
261.336	0.979
261.554	3.61367
261.773	3.40791
261.992	0.76266
262.21	3.45439
262.429	3.52271
262.648	7.07453
262.866	8.4601
263.085	5.84246
263.303	4.95045
263.522	8.42625
263.74	8.75925
263.959	15.04605
264.178	7.00771
264.396	6.39345
264.615	4.58395
264.833	10.96622
265.051	8.57815
265.27	10.64977
265.488	11.0765
265.707	6.2259
265.925	10.94853
266.144	4.8107
266.362	5.91602
266.58	5.53176
266.799	4.95399
267.017	6.04816
267.235	5.27072
267.454	3.19496
267.672	1.76797
267.89	4.2916
268.109	4.2838
268.327	4.15995
268.545	0.98308
268.763	3.98293
268.982	1.22805
269.2	4.3224
269.418	2.95731
269.636	1.87846
269.854	4.71276
270.073	3.00054
270.291	1.74893
270.509	1.67327
270.727	4.49405
270.945	7.33944
271.163	7.14913
271.381	1.46395
271.599	3.12983
271.817	5.30464
272.036	1.63623
272.254	2.98836
272.472	2.3142
272.69	2.48785
272.908	2.30391
273.126	4.40868
273.344	5.18946
273.562	1.74867
273.779	2.5644
273.997	4.01408
274.215	4.07686
274.433	2.84216
274.651	4.38612
274.869	4.63315
275.087	2.87642
275.305	4.09613
275.523	2.45899
275.74	2.69086
275.958	5.23405
276.176	8.28154
276.394	2.59201
276.612	3.3012
276.829	3.25378
277.047	2.53372
277.265	3.00839
277.483	3.37187
277.7	4.14278
277.918	3.41475
278.136	6.35723
278.353	2.6166
278.571	1.76874
278.789	4.24747
279.006	0.83479
279.224	2.80383
279.442	5.24086
279.659	3.50209
279.877	2.48571
280.094	5.89427
280.312	1.17963
280.529	3.2947
280.747	0.86996
280.964	2.57761
281.182	5.99808
281.399	2.65817
281.617	3.93861
281.834	2.44836
282.052	1.89371
282.269	3.03908
282.487	2.43371
282.704	2.08296
282.921	2.25469
283.139	3.3089
283.356	4.08123
283.574	3.83504
283.791	1.85693
284.008	5.53125
284.226	2.90328
284.443	3.30883
284.66	4.34391
284.877	3.35602
285.095	2.06232
285.312	1.56591
285.529	0.96837
285.746	0.86914
285.964	1.9693
286.181	1.34492
286.398	1.8509
286.615	2.62469
286.832	2.5994
287.05	0.55327
287.267	1.78746
287.484	1.88405
287.701	2.51257
287.918	2.63458
288.135	2.66289
288.352	1.22686
288.569	1.37737
288.786	2.51368
289.003	1.98378
289.22	2.9655
289.437	1.72203
289.654	2.90446
289.871	3.11978
290.088	2.83221
290.305	2.17978
290.522	1.75268
290.739	1.95834
290.956	3.14317
291.173	3.48819
291.39	3.34124
291.607	2.39388
291.824	1.69854
292.04	1.22448
292.257	2.86803
292.474	3.31532
292.691	1.94658
292.908	0.89255
293.125	1.70221
293.341	1.10361
293.558	4.8423
293.775	1.92527
293.992	2.02496
294.208	0.91621
294.425	1.19794
294.642	1.86576
294.858	2.3987
295.075	0.57568
295.292	1.90612
295.508	2.29599
295.725	4.12522
295.942	1.67288
296.158	1.16964
296.375	1.96875
296.591	1.48745
296.808	1.70589
297.024	1.90666
297.241	2.18985
297.458	2.33333
297.674	0.1772
297.891	1.83811
298.107	1.40082
298.323	1.1235
298.54	3.02815
298.756	1.22881
298.973	0.64715
299.189	3.03604
299.406	1.08895
299.622	2.76711
299.838	2.68444
300.055	2.6238
300.271	0.50731
300.487	0.98993
300.704	1.17991
300.92	0.60021
301.136	4.16678
301.353	2.63605
301.569	1.85418
301.785	2.15512
302.001	2.60567
302.218	2.12764
302.434	2.26483
302.65	0.73854
302.866	1.52215
303.083	3.87131
303.299	3.64573
303.515	1.83584
303.731	1.96793
303.947	0.63355
304.163	1.2087
304.379	1.98036
304.595	2.39475
304.812	1.22504
305.028	1.20926
305.244	1.77519
305.46	2.64072
305.676	2.7362
305.892	3.07188
306.108	2.16556
306.324	1.4566
306.54	3.60929
306.756	2.23108
306.972	2.36257
307.187	1.62869
307.403	3.39532
307.619	1.51107
307.835	2.96447
308.051	3.44294
308.267	0.92872
308.483	2.80217
308.699	2.35785
308.914	1.9558
309.13	1.81127
309.346	0.56931
309.562	0.94751
309.778	0.68818
309.993	2.4864
310.209	1.79848
310.425	0.89908
310.641	1.59296
310.856	0.90879
311.072	0.9118
311.288	1.72819
311.503	1.86679
311.719	0.34284
311.935	0.14972
312.15	2.13044
312.366	1.72958
312.581	2.11551
312.797	1.69454
313.013	2.4681
313.228	1.26774
313.444	1.81327
313.659	1.27149
313.875	2.28572
314.09	1.50887
314.306	3.11645
314.521	2.58073
314.737	2.45023
314.952	1.80364
315.168	1.69808
315.383	2.21693
315.599	1.68127
315.814	1.54274
316.029	2.53952
316.245	0.57088
316.46	0.46661
316.675	2.9805
316.891	3.44098
317.106	4.46971
317.321	2.20855
317.537	2.41823
317.752	2.51132
317.967	2.81124
318.183	1.07523
318.398	1.42094
318.613	2.69732
318.828	3.17698
319.043	2.60935
319.259	1.6382
319.474	2.12832
319.689	2.97342
319.904	0.50193
320.119	2.53968
320.334	2.22705
320.549	1.56004
320.765	2.87869
320.98	1.97156
321.195	2.68619
321.41	1.84675
321.625	2.56641
321.84	3.67078
322.055	3.67752
322.27	1.47886
322.485	1.09506
322.7	2.34566
322.915	2.90143
323.13	1.07533
323.345	3.21863
323.56	2.92505
323.775	2.43349
323.989	2.22732
324.204	2.22917
324.419	2.93367
324.634	0.90049
324.849	1.57654
325.064	4.92397
325.279	2.82086
325.493	2.36698
325.708	2.67812
325.923	1.1888
326.138	1.20689
326.352	3.40307
326.567	2.8883
326.782	1.6045
326.997	1.29516
327.211	2.50721
327.426	2.25509
327.641	1.36901
327.855	0.55745
328.07	2.12872
328.285	3.36616
328.499	1.47325
328.714	2.10677
328.928	2.69629
329.143	1.83028
329.358	2.83996
329.572	3.01042
329.787	2.98538
330.001	4.07584
330.216	0.87219
330.43	3.65531
330.645	3.43925
330.859	2.76974
331.074	1.39132
331.288	2.17561
331.503	3.08678
331.717	1.10407
331.931	2.03278
332.146	2.04604
332.36	3.48816
332.575	2.35289
332.789	2.19053
333.003	2.05604
333.218	2.43692
333.432	1.3041
333.646	2.66273
333.86	3.35271
334.075	3.26184
334.289	1.43044
334.503	1.20523
334.717	2.25871
334.932	2.21382
335.146	3.05809
335.36	1.67211
335.574	2.58219
335.788	2.41489
336.003	2.91753
336.217	2.25662
336.431	2.47961
336.645	1.36033
336.859	0.98545
337.073	1.77497
337.287	2.14271
337.501	1.11929
337.715	2.10929
337.929	2.7532
338.143	0.95656
338.357	1.88382
338.571	1.16976
338.785	2.31637
338.999	1.58681
339.213	1.49242
339.427	0.61573
339.641	3.10491
339.855	1.78489
340.069	1.42408
340.283	2.76434
340.497	3.60554
340.711	2.14624
340.924	1.74257
341.138	0.94536
341.352	0.80132
341.566	2.14236
341.78	0.60253
341.993	1.43792
342.207	1.03118
342.421	2.05602
342.635	1.72798
342.848	1.48658
343.062	0.28259
343.276	1.26131
343.49	3.56138
343.703	1.3367
343.917	2.68627
344.131	2.67073
344.344	1.31601
344.558	1.52643
344.771	0.98869
344.985	3.34184
345.199	3.10781
345.412	2.13411
345.626	2.06165
345.839	0.60168
346.053	0.88496
346.266	0.95615
346.48	2.41886
346.693	2.08894
346.907	2.09727
347.12	1.04064
347.334	2.14641
347.547	2.1067
347.76	1.45517
347.974	2.8859
348.187	1.99467
348.401	1.37569
348.614	1.30175
348.827	1.46124
349.041	2.29518
349.254	0.58123
349.467	1.48024
349.681	0.72026
349.894	1.31689
350.107	2.84752
350.32	3.16679
350.534	0.5636
350.747	1.42762
350.96	1.01852
351.173	1.24871
351.386	1.56487
351.6	1.39686
351.813	1.18525
352.026	1.66008
352.239	0.52511
352.452	1.59399
352.665	2.50527
352.878	1.71076
353.092	3.28201
353.305	2.43155
353.518	1.8908
353.731	1.08637
353.944	2.65691
354.157	1.22134
354.37	1.00309
354.583	0.98187
354.796	0.34788
355.009	2.42788
355.222	1.95068
355.435	1.69128
355.647	2.35407
355.86	0.8643
356.073	1.64631
356.286	1.21165
356.499	2.14057
356.712	1.79803
356.925	2.12375
357.138	2.24827
357.35	0.88947
357.563	1.40976
357.776	1.73362
357.989	1.16786
358.201	1.87165
358.414	1.66485
358.627	2.52019
358.84	1.32326
359.052	0.65461
359.265	0.86999
359.478	2.41894
359.69	-0.30427
359.903	1.95473
360.116	2.13299
360.328	0.31852
360.541	2.12423
360.753	0.69569
360.966	1.04129
361.179	1.06229
361.391	1.04488
361.604	0.73691
361.816	1.07707
362.029	0.91636
362.241	0.70109
362.454	0.86231
362.666	0.74779
362.879	1.38071
363.091	1.12587
363.304	0.75138
363.516	1.26198
363.728	0.58379
363.941	1.7931
364.153	0.99357
364.366	-0.19914
364.578	0.60025
364.79	1.59757
365.003	1.21338
365.215	0.90434
365.427	1.69336
365.639	2.12464
365.852	1.44903
366.064	3.10904
366.276	1.01459
366.488	1.69351
366.701	1.04207
366.913	1.28915
367.125	1.15532
367.337	0.80791
367.549	0.9972
367.762	1.54861
367.974	1.43934
368.186	0.71531
368.398	2.03723
368.61	1.84601
368.822	1.81702
369.034	1.36913
369.246	1.78519
369.458	3.38861
369.67	0.68013
369.882	2.70562
370.094	0.12572
370.306	2.68955
370.518	1.13783
370.73	0.73198
370.942	0.76088
371.154	1.14974
371.366	0.91818
371.578	1.42212
371.79	0.70491
372.002	2.15866
372.214	2.62569
372.425	1.46484
372.637	2.1234
372.849	1.58676
373.061	0.01084
373.273	1.59868
373.484	1.57056
373.696	1.87539
373.908	-0.06844
374.12	2.22432
374.331	1.51619
374.543	0.91906
374.755	0.69693
374.967	1.40586
375.178	1.75448
375.39	1.05449
375.602	1.32954
375.813	0.37802
376.025	0.47143
376.236	1.32237
376.448	1.53693
376.66	0.85249
376.871	0.91066
377.083	2.18229
377.294	2.13821
377.506	0.86282
377.717	2.10516
377.929	1.39831
378.14	0.7551
378.352	1.50047
378.563	1.40635
378.775	2.09374
378.986	0.74119
379.197	1.20652
379.409	0.88464
379.62	1.79671
379.832	1.63654
380.043	1.05056
380.254	1.29172
380.466	0.59253
380.677	3.15402
380.888	2.80554
381.1	2.94455
381.311	2.80715
381.522	1.23378
381.733	3.22847
381.945	1.16974
382.156	1.44997
382.367	0.83345
382.578	3.13896
382.789	3.05648
383.001	1.0187
383.212	2.14265
383.423	2.27812
383.634	2.14527
383.845	1.69093
384.056	1.01671
384.267	1.33357
384.478	1.22844
384.69	0.49145
384.901	1.53868
385.112	1.53799
385.323	2.30712
385.534	1.61273
385.745	1.43904
385.956	1.62519
386.167	0.68148
386.378	1.59993
386.588	0.57918
386.799	0.87117
387.01	0.20968
387.221	1.85126
387.432	1.18909
387.643	2.50432
387.854	1.18373
388.065	1.02105
388.275	1.26975
388.486	1.06925
388.697	1.10145
388.908	1.05549
389.119	2.10256
389.329	2.42565
389.54	1.32103
389.751	1.51126
389.962	2.12852
390.172	1.56827
390.383	1.01161
390.594	0.94371
390.804	0.88295
391.015	0.93227
391.226	1.45279
391.436	1.62929
391.647	1.49284
391.858	1.72698
392.068	0.25539
392.279	0.51033
392.489	1.28355
392.7	2.08168
392.91	0.73114
393.121	0.9036
393.331	1.62934
393.542	2.15265
393.752	1.70044
393.963	1.52247
394.173	1.35223
394.384	1.73833
394.594	1.42494
394.804	0.70259
395.015	1.4397
395.225	1.7521
395.436	0.81549
395.646	1.85503
395.856	0.94406
396.067	0.56576
396.277	2.01451
396.487	1.75879
396.697	1.59946
396.908	1.87186
397.118	1.81128
397.328	1.58444
397.538	2.13693
397.749	0.94519
397.959	2.14497
398.169	2.0047
398.379	0.76119
398.589	2.0245
398.8	1.65064
399.01	1.51462
399.22	1.43292
399.43	3.07363
399.64	1.46536
399.85	2.08124
400.06	1.6273
400.27	1.18983
400.48	1.69201
400.69	2.74625
400.9	1.30294
401.11	1.14982
401.32	2.22942
401.53	1.5126
401.74	2.81948
401.95	2.23492
402.16	1.07325
402.37	1.96889
402.58	1.37925
402.79	2.30968
403	2.56125
403.209	1.46527
403.419	2.54256
403.629	1.42635
403.839	2.36888
404.049	2.37664
404.258	1.47556
404.468	1.35092
404.678	2.11333
404.888	2.55808
405.097	1.39057
405.307	1.84016
405.517	2.2224
405.727	2.12933
405.936	1.69593
406.146	2.13054
406.356	2.83946
406.565	2.03322
406.775	1.65545
406.984	1.76701
407.194	3.17299
407.404	2.1012
407.613	2.42125
407.823	2.61499
408.032	2.79873
408.242	2.88863
408.451	1.90957
408.661	2.16493
408.87	3.37203
409.08	1.92024
409.289	2.48402
409.499	2.3436
409.708	2.4471
409.918	1.14297
410.127	2.46232
410.336	3.38223
410.546	2.87939
410.755	2.09453
410.964	2.14897
411.174	1.83321
411.383	2.61373
411.592	2.7069
411.802	1.89712
412.011	3.08941
412.22	2.41307
412.429	3.57943
412.639	3.48156
412.848	3.29668
413.057	3.39615
413.266	3.37333
413.475	2.62008
413.685	3.0588
413.894	3.32759
414.103	3.47094
414.312	3.23233
414.521	2.67599
414.73	2.78925
414.939	4.12337
415.148	3.22581
415.357	2.97267
415.566	2.63136
415.776	2.61659
415.985	2.63046
416.194	3.43229
416.403	3.98364
416.611	2.22826
416.82	2.73634
417.029	3.11697
417.238	2.63698
417.447	2.53004
417.656	2.94561
417.865	2.6821
418.074	2.89896
418.283	3.04957
418.492	3.63791
418.7	3.45337
418.909	4.17334
419.118	3.39646
419.327	3.65854
419.536	3.48425
419.744	3.32809
419.953	4.37672
420.162	4.4046
420.371	3.7011
420.579	3.83134
420.788	4.65291
420.997	4.72092
421.205	4.80777
421.414	4.67427
421.623	4.66531
421.831	4.36051
422.04	4.86756
422.249	4.15715
422.457	4.64057
422.666	4.06871
422.874	4.91808
423.083	4.99831
423.291	4.98238
423.5	4.7851
423.708	5.03812
423.917	5.32684
424.125	4.9206
424.334	4.73844
424.542	6.21406
424.751	5.7662
424.959	5.42181
425.167	5.70924
425.376	5.53334
425.584	4.76646
425.793	4.89083
426.001	4.19027
426.209	4.64708
426.418	3.82173
426.626	3.79435
426.834	3.64648
427.042	3.91656
427.251	3.68266
427.459	4.535
427.667	3.99856
427.875	3.40352
428.084	3.70576
428.292	4.70148
428.5	4.34298
428.708	3.48251
428.916	3.54242
429.124	3.99928
429.333	3.8083
429.541	3.89576
429.749	4.08427
429.957	4.04611
430.165	5.59194
430.373	3.31728
430.581	4.25171
430.789	4.97167
430.997	3.93466
431.205	3.70716
431.413	4.33611
431.621	3.94649
431.829	4.61375
432.037	4.11095
432.245	4.46756
432.453	4.49113
432.661	4.18958
432.869	5.31187
433.076	3.84211
433.284	4.20206
433.492	4.70427
433.7	4.94513
433.908	4.17992
434.116	4.43986
434.323	4.47018
434.531	4.2916
434.739	4.66456
434.947	4.92546
435.154	4.82273
435.362	4.43373
435.57	4.27631
435.778	4.07278
435.985	4.60245
436.193	4.19536
436.401	5.13219
436.608	4.47859
436.816	4.21763
437.023	5.27323
437.231	5.37584
437.439	4.65305
437.646	4.8602
437.854	4.70475
438.061	4.98245
438.269	4.56103
438.476	4.96262
438.684	4.61073
438.891	4.51873
439.099	4.21967
439.306	4.14666
439.514	4.17549
439.721	5.07414
439.929	4.58185
440.136	5.36271
440.343	5.27132
440.551	5.15486
440.758	6.59338
440.965	5.5617
441.173	5.25168
441.38	4.98736
441.587	5.18123
441.795	4.8614
442.002	4.86028
442.209	4.87155
442.416	5.06618
442.624	5.05393
442.831	4.99946
443.038	4.50816
443.245	4.27883
443.452	4.61674
443.66	5.10349
443.867	4.45459
444.074	4.50108
444.281	4.50465
444.488	4.71337
444.695	4.828
444.902	4.64297
445.109	5.4861
445.316	5.08399
445.523	5.32087
445.73	5.2449
445.937	5.99238
446.144	6.28239
446.351	6.55557
446.558	5.73642
446.765	7.00478
446.972	6.73464
447.179	6.23589
447.386	6.87143
447.593	5.71587
447.8	6.44857
448.007	5.46054
448.214	5.21282
448.42	4.87175
448.627	5.45839
448.834	4.85792
449.041	4.75368
449.248	4.72682
449.454	5.30283
449.661	5.79906
449.868	4.71356
450.075	4.57027
450.281	3.83227
450.488	4.3348
450.695	4.45787
450.901	4.53672
451.108	4.55095
451.315	5.38805
451.521	4.73266
451.728	5.4344
451.935	4.5391
452.141	4.8325
452.348	4.87038
452.554	4.76358
452.761	4.61636
452.967	5.76927
453.174	5.02919
453.38	5.11836
453.587	4.33599
453.793	5.03147
454	5.37406
454.206	6.05065
454.413	5.49302
454.619	5.13195
454.825	4.58468
455.032	5.28597
455.238	5.35326
455.445	4.3084
455.651	4.96731
455.857	4.05988
456.064	4.74813
456.27	4.71279
456.476	4.76845
456.682	4.25706
456.889	5.14134
457.095	5.16222
457.301	6.41205
457.507	4.96222
457.714	5.00366
457.92	5.06474
458.126	4.59993
458.332	4.92615
458.538	4.79023
458.744	4.9338
458.951	4.92776
459.157	6.66128
459.363	5.72592
459.569	5.8856
459.775	6.45958
459.981	5.91379
460.187	6.30653
460.393	6.64237
460.599	6.95631
460.805	6.22998
461.011	5.57291
461.217	5.85583
461.423	5.67565
461.629	5.12275
461.835	5.45715
462.041	5.05525
462.247	5.98767
462.453	5.05436
462.658	5.051
462.864	5.49362
463.07	5.27342
463.276	5.21969
463.482	5.1869
463.688	5.84697
463.893	4.87288
464.099	5.04574
464.305	5.87592
464.511	4.9238
464.716	5.06375
464.922	5.60177
465.128	4.75466
465.333	6.06853
465.539	5.48788
465.745	5.14824
465.95	5.1712
466.156	6.72939
466.362	5.8284
466.567	5.19569
466.773	4.92318
466.978	6.05012
467.184	4.76055
467.389	4.27598
467.595	5.41725
467.8	4.83504
468.006	5.96151
468.211	5.86705
468.417	4.71413
468.622	5.42659
468.828	5.6588
469.033	5.39222
469.239	6.70385
469.444	5.04328
469.649	5.77124
469.855	5.26185
470.06	5.28576
470.266	4.85137
470.471	5.53195
470.676	5.5711
470.881	4.45507
471.087	6.01176
471.292	6.82039
471.497	4.70771
471.703	5.21823
471.908	5.02613
472.113	5.32633
472.318	5.77738
472.523	4.86856
472.729	5.53878
472.934	5.68295
473.139	5.05441
473.344	5.52409
473.549	5.92758
473.754	5.08318
473.959	6.84765
474.164	4.97433
474.369	5.27252
474.575	5.74897
474.78	5.33874
474.985	5.10338
475.19	4.37921
475.395	4.94418
475.6	5.36927
475.804	6.18062
476.009	5.35128
476.214	5.38068
476.419	5.25177
476.624	4.63495
476.829	5.00218
477.034	5.84767
477.239	4.9738
477.444	5.79857
477.648	5.66422
477.853	5.68163
478.058	5.2856
478.263	5.03405
478.468	4.81251
478.672	4.94435
478.877	6.12757
479.082	6.21135
479.287	5.60862
479.491	5.46133
479.696	5.04582
479.901	5.8893
480.105	5.89431
480.31	5.18302
480.515	5.50976
480.719	6.60205
480.924	5.30694
481.128	5.07742
481.333	5.65625
481.538	5.66977
481.742	5.67149
481.947	6.47905
482.151	7.12526
482.356	7.39856
482.56	8.90135
482.765	9.66989
482.969	11.60632
483.174	13.08775
483.378	15.25593
483.582	15.73052
483.787	17.08396
483.991	17.37213
484.196	17.70697
484.4	17.39825
484.604	18.05287
484.809	16.18895
485.013	15.45559
485.217	14.0512
485.422	12.5548
485.626	11.50572
485.83	10.71868
486.034	10.26398
486.239	10.4357
486.443	10.53693
486.647	10.61572
486.851	11.51151
487.055	12.41312
487.26	12.11035
487.464	12.83518
487.668	12.47129
487.872	12.72094
488.076	13.14497
488.28	12.58063
488.484	11.77994
488.688	11.52217
488.892	11.13262
489.096	10.38602
489.3	9.53594
489.504	8.90749
489.708	8.55504
489.912	8.38448
490.116	8.14308
490.32	7.71466
490.524	8.38903
490.728	9.07679
490.932	9.29333
491.136	9.80946
491.34	10.60488
491.544	11.01127
491.748	10.89876
491.951	10.95629
492.155	10.58895
492.359	10.44843
492.563	9.48731
492.767	8.92916
492.97	8.24492
493.174	7.31206
493.378	6.6971
493.582	5.84225
493.785	5.75763
493.989	5.77509
494.193	5.77502
494.396	5.58265
494.6	6.06954
494.804	5.68054
495.007	5.30557
495.211	5.41934
495.414	5.49719
495.618	5.82349
495.822	6.2759
496.025	5.72165
496.229	6.04035
496.432	5.37783
496.636	5.7964
496.839	5.64551
497.043	6.43195
497.246	5.91947
497.45	5.51723
497.653	5.78045
497.856	5.80203
498.06	5.33287
498.263	5.66754
498.467	5.56784
498.67	6.099
498.873	5.96436
499.077	5.61556
499.28	5.59639
499.483	5.85177
499.686	6.03352
499.89	5.77461
500.093	6.13117
500.296	5.38334
500.499	6.44928
500.703	5.7097
500.906	5.93007
501.109	6.5735
501.312	5.76054
501.515	5.61928
501.719	5.88589
501.922	6.26513
502.125	5.83249
502.328	5.68143
502.531	5.24086
502.734	5.6366
502.937	4.91591
503.14	5.8533
503.343	5.36026
503.546	5.47899
503.749	5.32968
503.952	6.09109
504.155	5.33113
504.358	5.86862
504.561	5.68603
504.764	5.04343
504.967	5.69388
505.17	5.6415
505.373	6.39061
505.576	5.77094
505.778	6.13788
505.981	5.26299
506.184	6.39683
506.387	4.97548
506.59	6.70314
506.793	6.27625
506.995	5.94591
507.198	4.78786
507.401	5.98192
507.604	6.02052
507.806	5.3028
508.009	5.38284
508.212	6.14528
508.414	5.39153
508.617	5.4806
508.82	5.66535
509.022	6.47625
509.225	5.85378
509.427	5.10128
509.63	6.40798
509.833	5.80263
510.035	5.56757
510.238	5.05202
510.44	6.31277
510.643	4.90398
510.845	6.71016
511.048	5.92382
511.25	5.446
511.453	5.66036
511.655	5.94344
511.858	5.59288
512.06	6.14818
512.262	5.71937
512.465	6.18638
512.667	5.50505
512.869	5.16437
513.072	5.90229
513.274	6.12872
513.476	5.99867
513.679	6.08714
513.881	5.20966
514.083	6.46032
514.286	5.42041
514.488	5.36784
514.69	5.31835
514.892	5.10309
515.094	5.95562
515.297	5.39195
515.499	5.78893
515.701	5.2462
515.903	6.51584
516.105	6.49567
516.307	6.12788
516.509	4.88523
516.711	5.23816
516.913	5.81248
517.116	5.81053
517.318	5.58655
517.52	6.34253
517.722	6.04861
517.924	5.2981
518.126	6.0236
518.328	5.56591
518.529	6.25502
518.731	7.10109
518.933	5.70849
519.135	5.91462
519.337	6.57487
519.539	6.05444
519.741	5.03819
519.943	5.62851
520.145	5.63199
520.346	6.02527
520.548	5.535
520.75	5.85998
520.952	5.5824
521.153	5.91925
521.355	5.88963
521.557	5.29527
521.759	5.76411
521.96	5.70137
522.162	5.14816
522.364	6.27445
522.565	5.49526
522.767	5.99735
522.969	6.25224
523.17	6.1415
523.372	5.93327
523.573	5.50361
523.775	5.65145
523.977	5.36352
524.178	6.70985
524.38	5.51584
524.581	6.11335
524.783	5.75532
524.984	6.09283
525.186	5.92594
525.387	6.38274
525.589	6.28212
525.79	6.23491
525.991	6.22398
526.193	6.74065
526.394	6.14719
526.596	6.98366
526.797	7.1349
526.998	6.86062
527.2	7.02998
527.401	8.66975
527.602	9.10407
527.803	10.80255
528.005	11.4227
528.206	12.27548
528.407	13.09839
528.608	13.03527
528.81	13.40242
529.011	12.91928
529.212	13.78061
529.413	12.78875
529.614	12.06186
529.815	11.50528
530.017	10.63225
530.218	9.42255
530.419	8.33099
530.62	8.06663
530.821	7.60807
531.022	6.45323
531.223	7.20102
531.424	7.12433
531.625	7.07314
531.826	6.74241
532.027	7.10644
532.228	8.03624
532.429	7.93134
532.63	8.15341
532.831	8.8252
533.032	8.92532
533.233	9.52875
533.433	9.22465
533.634	9.4739
533.835	8.86674
534.036	8.45121
534.237	8.1704
534.438	7.67604
534.638	6.78417
534.839	6.5904
535.04	6.57236
535.241	6.00026
535.441	6.78725
535.642	6.43525
535.843	5.78884
536.043	6.04556
536.244	6.15747
536.445	6.34285
536.645	7.00156
536.846	6.69117
537.047	7.17787
537.247	6.16534
537.448	6.03445
537.648	5.99254
537.849	5.86148
538.049	5.76553
538.25	6.10701
538.451	5.97771
538.651	5.45579
538.851	6.09721
539.052	6.45669
539.252	6.30818
539.453	5.87494
539.653	6.04937
539.854	5.88402
540.054	6.01947
540.254	7.21392
540.455	7.88485
540.655	7.79846
540.855	8.90752
541.056	9.70252
541.256	9.53639
541.456	10.3457
541.657	9.89425
541.857	10.65899
542.057	9.44222
542.257	9.09482
542.458	9.5246
542.658	9.381
542.858	7.76553
543.058	8.1064
543.258	7.50336
543.458	6.41746
543.659	6.05668
543.859	6.59319
544.059	6.42256
544.259	5.86897
544.459	6.48581
544.659	5.70772
544.859	6.11788
545.059	5.65404
545.259	6.19414
545.459	6.0037
545.659	6.34803
545.859	5.88712
546.059	6.13931
546.259	5.5936
546.459	5.22393
546.659	5.47118
546.859	6.2857
547.059	6.05135
547.258	6.09227
547.458	6.09181
547.658	5.39706
547.858	5.30806
548.058	5.83461
548.258	5.63853
548.457	5.34158
548.657	7.02248
548.857	5.7415
549.057	6.1951
549.256	6.00116
549.456	5.5896
549.656	4.74016
549.855	6.95532
550.055	5.54163
550.255	6.85881
550.454	6.00934
550.654	6.37135
550.853	6.75273
551.053	6.31096
551.253	6.06193
551.452	6.33825
551.652	5.15593
551.851	4.96814
552.051	5.63998
552.25	5.45605
552.45	5.44564
552.649	5.54775
552.849	5.26028
553.048	5.83421
553.248	6.24248
553.447	5.08538
553.646	6.20436
553.846	7.23674
554.045	6.58503
554.244	5.06165
554.444	6.7131
554.643	5.37196
554.842	6.76214
555.042	7.07488
555.241	5.46457
555.44	5.24247
555.64	6.07914
555.839	6.65256
556.038	6.21152
556.237	5.47939
556.436	5.98893
556.636	6.02678
556.835	5.33081
557.034	6.80125
557.233	5.74972
557.432	4.91129
557.631	6.45494
557.83	5.74248
558.029	5.49077
558.228	5.47009
558.427	5.264
558.626	6.02128
558.825	5.27295
559.024	5.79412
559.223	7.0226
559.422	5.7457
559.621	6.11149
559.82	4.4162
560.019	5.90562
560.218	5.46721
560.417	4.18384
560.616	5.46907
560.815	7.95636
561.014	4.87647
561.212	6.79376
561.411	5.88037
561.61	4.95055
561.809	5.60523
562.008	6.90695
562.206	5.59492
562.405	6.10722
562.604	5.66002
562.803	5.87069
563.001	5.76117
563.2	4.87658
563.399	6.18307
563.597	5.08261
563.796	5.85191
563.995	4.9747
564.193	6.30857
564.392	5.51212
564.59	7.18718
564.789	4.63233
564.988	5.64091
565.186	5.93684
565.385	5.73124
565.583	5.56005
565.782	5.83365
565.98	5.57046
566.179	5.61088
566.377	5.20861
566.575	5.23401
566.774	6.58086
566.972	6.3083
567.171	7.11917
567.369	6.67342
567.567	5.88433
567.766	6.03239
567.964	4.44993
568.162	6.27222
568.361	6.70168
568.559	5.57004
568.757	5.95881
568.956	5.82669
569.154	5.79131
569.352	6.24545
569.55	5.65621
569.748	5.81209
569.947	5.23115
570.145	5.26089
570.343	5.03118
570.541	6.91855
570.739	4.91761
570.937	5.78511
571.135	6.07919
571.333	7.37578
571.532	7.23176
571.73	6.00115
571.928	6.47556
572.126	6.23662
572.324	5.52515
572.522	6.55854
572.72	7.56193
572.918	5.77624
573.116	6.14955
573.313	5.60764
573.511	5.70181
573.709	5.40712
573.907	6.45745
574.105	5.53318
574.303	4.80064
574.501	4.7945
574.699	6.06256
574.896	5.91098
575.094	6.24777
575.292	4.96366
575.49	6.34344
575.688	5.64097
575.885	6.65262
576.083	7.37355
576.281	6.20262
576.478	5.28799
576.676	6.14622
576.874	4.85471
577.071	5.67997
577.269	7.48819
577.467	5.70438
577.664	5.83736
577.862	6.43637
578.059	5.22816
578.257	6.28069
578.455	5.68573
578.652	5.85155
578.85	4.49538
579.047	5.9886
579.245	5.59289
579.442	5.87739
579.64	5.72942
579.837	4.56169
580.034	7.80296
580.232	5.58932
580.429	5.10523
580.627	6.23131
580.824	6.84649
581.021	6.42862
581.219	5.61895
581.416	5.37204
581.613	7.14017
581.811	6.76529
582.008	5.21945
582.205	6.69286
582.402	6.10411
582.6	7.11144
582.797	6.02819
582.994	6.47405
583.191	6.76438
583.388	5.97431
583.586	6.65963
583.783	6.93375
583.98	5.23377
584.177	6.07835
584.374	4.01563
584.571	5.80271
584.768	5.90364
584.965	5.72784
585.162	6.60169
585.359	7.35777
585.556	6.02815
585.753	6.42173
585.95	5.00381
586.147	5.27357
586.344	6.48369
586.541	5.88035
586.738	5.08869
586.935	5.9379
587.132	5.50536
587.329	6.98439
587.526	5.99664
587.722	10.10351
587.919	5.04648
588.116	6.34116
588.313	7.1466
588.51	7.78782
588.706	5.92268
588.903	6.51984
589.1	6.83562
589.297	8.55788
589.493	5.99506
589.69	6.43567
589.887	5.62799
590.083	5.16172
590.28	5.56019
590.477	6.99841
590.673	6.4254
590.87	6.86662
591.067	5.50752
591.263	6.57343
591.46	6.41638
591.656	5.96283
591.853	7.45174
592.049	5.4855
592.246	5.73316
592.442	7.065
592.639	7.415
592.835	5.27062
593.032	6.50858
593.228	4.9457
593.425	4.98056
593.621	4.84913
593.817	6.27495
594.014	5.52447
594.21	6.36083
594.406	7.0997
594.603	6.46009
594.799	5.62781
594.995	4.3634
595.192	7.11282
595.388	5.76274
595.584	5.70662
595.78	5.00851
595.977	8.46766
596.173	7.48357
596.369	5.91294
596.565	5.26205
596.761	5.08119
596.957	6.94055
597.154	5.44099
597.35	5.66754
597.546	5.42194
597.742	6.34375
597.938	6.20982
598.134	5.35246
598.33	6.13632
598.526	6.97718
598.722	6.34824
598.918	7.69577
599.114	6.72512
599.31	5.10011
599.506	6.26331
599.702	5.4811
599.898	6.51498
600.094	6.97133
600.29	7.00294
600.485	6.91389
600.681	5.70089
600.877	7.7577
601.073	6.30447
601.269	8.45736
601.465	7.53655
601.66	5.43856
601.856	4.64004
602.052	8.34022
602.248	6.10234
602.443	4.60863
602.639	5.25342
602.835	5.50525
603.03	5.64278
603.226	6.95761
603.422	5.44414
603.617	6.10526
603.813	5.90308
604.009	5.63542
604.204	7.09088
604.4	5.00612
604.595	7.02893
604.791	5.35714
604.986	6.44216
605.182	5.35263
605.377	5.79198
605.573	5.83087
605.768	6.03694
605.964	6.56914
606.159	6.58349
606.355	7.16611
606.55	5.83539
606.746	7.18244
606.941	6.15046
607.136	7.78819
607.332	8.93461
607.527	5.30352
607.722	6.58937
607.918	6.1319
608.113	5.49175
608.308	7.04789
608.503	6.74148
608.699	6.60568
608.894	6.67788
609.089	5.51019
609.284	6.63625
609.479	5.83849
609.675	6.83656
609.87	6.07847
610.065	6.73263
610.26	6.93196
610.455	6.76777
610.65	6.18046
610.845	6.6076
611.04	6.83366
611.235	6.08183
611.43	6.10912
611.625	5.30281
611.82	7.59244
612.015	5.75792
612.21	8.02778
612.405	5.17025
612.6	8.08901
612.795	7.86631
612.99	7.43879
613.185	5.48871
613.38	5.8154
613.575	6.84775
613.77	9.59556
613.965	5.0095
614.159	5.88289
614.354	7.85711
614.549	7.84308
614.744	7.12958
614.938	5.40403
615.133	5.37495
615.328	8.11295
615.523	7.83628
615.717	9.66947
615.912	6.3245
616.107	6.63727
616.301	6.31027
616.496	6.06855
616.691	8.55689
616.885	7.50784
617.08	9.72667
617.274	7.76383
617.469	9.1355
617.664	7.62239
617.858	6.29555
618.053	7.04749
618.247	6.35397
618.442	4.38719
618.636	8.34855
618.831	6.18782
619.025	6.19868
619.219	10.05792
619.414	3.6266
619.608	6.44294
619.803	5.90162
619.997	9.26502
620.191	7.93083
620.386	7.11677
620.58	6.84452
620.774	4.82023
620.969	5.03638
621.163	6.91509
621.357	5.43634
621.551	6.53583
621.746	6.91036
621.94	6.5079
622.134	10.60472
622.328	9.32281
622.522	5.2159
622.716	7.90145
622.911	7.94607
623.105	7.92944
623.299	7.14795
623.493	10.54398
623.687	6.1954
623.881	6.15475
624.075	7.85502
624.269	8.22001
624.463	4.61321
624.657	4.99158
624.851	7.72844
625.045	7.76921
625.239	7.78541
625.433	6.04339
625.627	8.87104
625.821	6.34267
626.015	6.11008
626.209	6.92185
626.403	5.08958
626.596	7.28396
626.79	7.75877
626.984	5.45932
627.178	7.61169
627.372	7.07634
627.565	7.5443
627.759	5.27978
627.953	5.56752
628.147	7.12563
628.34	7.57778
628.534	9.42362
628.728	6.59544
628.921	7.9481
629.115	7.78198
629.309	7.94745
629.502	8.32741
629.696	7.18912
629.89	6.78546
630.083	7.33436
630.277	7.30787
630.47	9.06737
630.664	6.65321
630.857	5.30244
631.051	8.02678
631.244	8.82258
631.438	8.37914
631.631	6.45791
631.825	8.68726
632.018	7.70535
632.212	9.4579
632.405	8.93957
632.598	6.16852
632.792	7.33022
632.985	4.59668
633.178	6.69698
633.372	6.91459
633.565	6.97435
633.758	8.63588
633.952	6.15226
634.145	6.10997
634.338	7.066
634.531	6.56092
634.724	6.05964
634.918	7.19754
635.111	6.5898
635.304	6.32983
635.497	10.31956
635.69	7.69644
635.883	8.86755
636.077	5.86448
636.27	7.77234
636.463	7.84769
636.656	7.60241
636.849	6.94006
637.042	7.95128
637.235	9.99731
637.428	8.26585
637.621	8.04585
637.814	9.26811
638.007	9.44126
638.2	9.53518
638.393	10.09877
638.586	5.72153
638.778	6.98397
638.971	7.36105
639.164	9.77061
639.357	8.2093
639.55	9.71462
639.743	8.71813
639.935	8.63599
640.128	10.87881
640.321	9.1298
640.514	7.99658
640.707	11.30183
640.899	8.9927
641.092	5.50295
641.285	23.44645
641.477	5.0222
641.67	11.61285
641.863	9.46184
642.055	8.10317
642.248	8.20471
642.441	7.68039
642.633	8.82899
642.826	10.21454
643.018	9.97087
643.211	10.75055
643.403	11.33015
643.596	11.52838
643.788	11.32127
643.981	7.56988
644.173	9.48894
644.366	7.49599
644.558	5.47275
644.751	9.65727
644.943	6.49696
645.135	10.66801
645.328	10.99082
645.52	9.29308
645.712	10.12351
645.905	13.17433
646.097	6.46296
646.289	8.91535
646.482	11.74639
646.674	7.16072
646.866	10.00504
647.058	9.15213
647.251	6.86217
647.443	7.53581
647.635	8.04947
647.827	6.90232
648.019	6.58158
648.211	8.23119
648.404	8.60609
648.596	11.28731
648.788	9.21023
648.98	8.53633
649.172	9.18816
649.364	8.96985
649.556	5.77312
649.748	12.67756
649.94	7.25457
650.132	9.70565
650.324	7.31505
650.516	7.33158
650.708	10.23817
650.9	6.18416
651.092	6.01414
651.284	6.41487
651.476	6.76115
651.667	9.73808
651.859	10.91931
652.051	8.1738
652.243	8.79774
652.435	7.85535
652.627	9.1712
652.818	9.05283
653.01	6.17793
653.202	7.48005
653.394	7.81651
653.585	9.47676
653.777	16.14424
653.969	11.57084
654.16	10.71818
654.352	7.04244
654.544	8.51391
654.735	10.73499
654.927	8.90142
655.118	11.28905
655.31	10.41921
655.502	10.75749
655.693	8.40386
655.885	9.54464
656.076	11.62562
656.268	9.29449
656.459	11.43299
656.651	11.45295
656.842	8.12157
657.034	7.84548
657.225	10.39594
657.416	11.33559
657.608	11.25907
657.799	8.97508
657.99	10.86937
658.182	7.70968
658.373	7.78116
658.564	10.89113
658.756	9.21261
658.947	8.41869
659.138	7.12811
659.33	7.98411
659.521	7.55304
659.712	8.21809
659.903	8.26095
660.094	7.77542
660.286	6.13352
660.477	11.5692
660.668	9.84163
660.859	8.73434
661.05	6.49081
661.241	9.71554
661.432	9.66476
661.623	8.49011
661.814	8.08603
662.006	6.51965
662.197	9.61111
662.388	11.21031
662.579	9.86372
662.77	11.32955
662.96	14.49647
663.151	11.31635
663.342	6.01866
663.533	10.58033
663.724	9.13509
663.915	12.68122
664.106	9.71057
664.297	13.11134
664.488	10.92798
664.678	8.72158
664.869	11.36766
665.06	11.17463
665.251	9.99059
665.442	10.82892
665.632	7.84035
665.823	13.7158
666.014	4.60887
666.204	11.02571
666.395	12.37231
666.586	14.50766
666.776	11.23988
666.967	13.41807
667.158	10.10968
667.348	12.7537
667.539	7.52966
667.729	11.79897
667.92	8.54552
668.111	11.82812
668.301	11.47216
668.492	9.29904
668.682	10.23832
668.873	9.38253
669.063	7.46989
669.253	10.46723
669.444	12.85451
669.634	9.73316
669.825	13.59707
670.015	12.14347
670.206	8.53845
670.396	14.33472
670.586	9.88829
670.777	11.18128
670.967	5.79893
671.157	10.11683
671.347	8.82363
671.538	13.37445
671.728	11.23695
671.918	14.09949
672.108	12.48035
672.299	10.09559
672.489	10.27571
672.679	9.11162
672.869	11.01162
673.059	15.08284
673.249	11.5558
673.44	8.17514
673.63	9.78186
673.82	12.42212
674.01	8.28466
674.2	11.7266
674.39	16.23866
674.58	11.74414
674.77	10.75816
674.96	10.02092
675.15	19.37025
675.34	12.9923
675.53	10.48356
675.72	9.24194
675.91	7.6284
676.099	14.90599
676.289	16.17163
676.479	13.014
676.669	9.30531
676.859	11.84105
677.049	9.12591
677.238	11.02391
677.428	14.81906
677.618	11.7913
677.808	15.40646
677.997	11.84023
678.187	8.79511
678.377	10.6845
678.567	9.48139
678.756	10.08226
678.946	10.76186
679.136	7.81839
679.325	9.67458
679.515	8.57446
679.704	8.15384
679.894	12.56286
680.084	11.43423
680.273	13.23291
680.463	8.46416
680.652	8.72648
680.842	10.26397
681.031	12.26458
681.221	8.79933
681.41	11.86828
681.6	10.19537
681.789	12.08018
681.978	13.62593
682.168	11.50163
682.357	11.3227
682.547	11.78996
682.736	11.25242
682.925	13.90282
683.115	13.81018
683.304	12.76704
683.493	11.16561
683.682	12.68186
683.872	12.45742
684.061	14.10972
684.25	12.7584
684.439	17.19335
684.629	13.42559
684.818	19.54271
685.007	11.80042
685.196	10.71451
685.385	16.29393
685.574	12.79741
685.763	12.54337
685.952	12.11461
686.142	8.69202
686.331	15.06943
686.52	8.48466
686.709	17.34947
686.898	16.62333
687.087	13.56278
687.276	16.24865
687.465	15.5414
687.654	10.96185
687.842	15.58091
688.031	8.87051
688.22	15.54308
688.409	12.9555
688.598	12.87557
688.787	18.47569
688.976	12.29497
689.165	17.48435
689.353	11.37538
689.542	13.47496
689.731	15.28512
689.92	18.55687
690.108	14.60202
690.297	11.64355
690.486	12.90049
690.675	14.14575
690.863	16.97918
691.052	16.58404
691.241	13.82377
691.429	13.91385
691.618	16.52863
691.806	9.99073
691.995	12.42845
692.184	13.18813
692.372	12.06407
692.561	12.83783
692.749	13.88775
692.938	22.44068
693.126	14.44274
693.315	12.681
693.503	15.39258
693.692	16.16857
693.88	15.85989
694.068	19.5127
694.257	13.83628
694.445	15.1543
694.634	8.65794
694.822	15.96036
695.01	16.72087
695.199	19.66201
695.387	18.10548
695.575	17.74974
695.763	13.44414
695.952	13.1294
696.14	9.62722
696.328	12.09338
696.516	14.47267
696.705	14.47654
696.893	13.978
697.081	9.28351
697.269	16.25548
697.457	10.62104
697.645	9.9281
697.833	15.26461
698.021	10.93078
698.21	11.48674
698.398	12.15211
698.586	9.71125
698.774	8.58934
698.962	12.25462
699.15	9.61322
699.338	8.52743
699.526	13.49373
699.714	10.53566
699.901	10.56113
700.089	14.11123
700.277	10.65715
700.465	12.02469
700.653	14.23691
700.841	14.06416
701.029	10.92017
701.217	17.19783
701.404	13.3309
701.592	17.27117
701.78	20.20136
701.968	13.11904
702.155	12.80671
702.343	10.12976
702.531	17.88204
702.718	15.17083
702.906	12.3919
703.094	12.67267
703.281	18.00679
703.469	13.40216
703.657	17.71202
703.844	24.37792
704.032	20.58328
704.219	13.47415
704.407	16.436
704.595	19.7926
704.782	16.02695
704.97	14.4688
705.157	14.18388
705.345	21.80726
705.532	26.84318
705.719	18.03033
705.907	21.85884
706.094	17.92561
706.282	24.34824
706.469	17.72216
706.656	18.81986
706.844	17.53435
707.031	22.6515
707.218	20.89023
707.406	24.73813
707.593	21.9381
707.78	22.03162
707.968	20.42385
708.155	17.64331
708.342	22.3032
708.529	22.89128
708.716	21.0428
708.904	25.4222
709.091	22.37508
709.278	16.87736
709.465	26.9487
709.652	25.11182
709.839	24.21964
710.026	20.36781
710.213	14.58577
710.4	20.76748
710.587	21.69699
710.774	23.42847
710.961	23.68847
711.148	19.97762
711.335	23.08335
711.522	19.60326
711.709	21.21583
711.896	26.45779
712.083	23.54116
712.27	16.60309
712.457	21.06529
712.644	15.07016
712.831	27.11951
713.017	20.95198
713.204	22.30969
713.391	16.73367
713.578	22.92808
713.765	24.72946
713.951	20.59008
714.138	30.551
714.325	19.73831
714.512	18.5725
714.698	15.27588
714.885	24.18227
715.072	18.39832
715.258	17.85549
715.445	15.44712
715.631	21.85012
715.818	8.89262
716.005	15.24817
716.191	20.11887
716.378	15.47594
716.564	19.9335
716.751	13.86985
716.937	16.18543
717.124	20.8817
717.31	14.25271
717.497	25.34358
717.683	15.00142
717.869	25.62619
718.056	15.46194
718.242	19.5578
718.429	16.95191
718.615	13.17614
718.801	17.59938
718.988	22.14253
719.174	20.26194
719.36	16.7352
719.547	22.76948
719.733	19.25284
719.919	19.28828
720.105	19.94562
720.291	18.91441
720.478	19.3064
720.664	18.02924
720.85	15.59614
721.036	30.26555
721.222	24.82132
721.408	18.63968
721.595	25.49009
721.781	25.17036
721.967	23.49923
722.153	25.10125
722.339	21.20285
722.525	20.72495
722.711	14.52617
722.897	13.28815
723.083	16.89858
723.269	24.10832
723.455	31.73186
723.641	37.36222
723.827	19.37948
724.012	21.05292
724.198	18.51225
724.384	25.38492
724.57	20.54119
724.756	13.53647
724.942	11.41578
725.127	24.82483
725.313	24.86318
725.499	25.28351
725.685	29.04111
725.87	21.71309
726.056	15.73229
726.242	24.40881
726.428	12.64609
726.613	23.43271
726.799	17.77195
726.985	14.88414
727.17	12.71309
727.356	29.46272
727.541	15.72661
727.727	18.39454
727.913	23.07115
728.098	17.50425
728.284	22.58153
728.469	14.45527
728.655	15.3606
728.84	24.62261
729.026	22.98459
729.211	22.74322
729.397	21.55177
729.582	23.67613
729.767	19.05249
729.953	20.80845
730.138	26.25366
730.323	9.47697
730.509	14.77117
730.694	27.51546
730.879	22.56179
731.065	21.22195
731.25	30.51037
731.435	23.15851
731.621	13.80252
731.806	17.71127
731.991	20.73816
732.176	13.22105
732.361	27.1385
732.547	21.11196
732.732	12.72605
732.917	30.89382
733.102	14.91285
733.287	17.37427
733.472	19.16796
733.657	19.68312
733.842	13.43944
734.027	17.4043
734.212	18.92892
734.397	16.58163
734.582	19.82803
734.767	24.30531
734.952	27.23554
735.137	9.34487
735.322	26.5164
735.507	21.12549
735.692	20.57075
735.877	30.44712
736.062	29.7851
736.247	21.85746
736.431	20.30303
736.616	26.05422
736.801	22.63197
736.986	20.6087
737.171	15.65475
737.355	14.94055
737.54	27.31187
737.725	21.86139
737.909	35.48937
738.094	18.41724
738.279	24.07454
738.463	19.73983
738.648	24.18041
738.833	23.57934
739.017	32.12713
739.202	18.69946
739.386	19.47613
739.571	16.31401
739.756	25.41872
739.94	20.71756
740.125	24.19323
740.309	17.55909
740.494	24.8613
740.678	22.31132
740.863	22.75556
741.047	21.94604
741.231	29.39468
741.416	17.5368
741.6	29.16268
741.785	16.83616
741.969	26.72499
742.153	29.83102
742.338	11.60004
742.522	21.22426
742.706	26.50827
742.89	15.37124
743.075	21.87769
743.259	28.92452
743.443	27.46089
743.627	28.49523
743.812	33.17538
743.996	13.24865
744.18	21.12432
744.364	19.29346
744.548	35.70599
744.732	20.7039
744.916	26.19097
745.1	26.32986
745.285	20.4867
745.469	24.97992
745.653	31.31062
745.837	15.97899
746.021	35.64521
746.205	28.56689
746.389	22.47124
746.573	20.70158
746.757	31.0382
746.94	19.67657
747.124	29.52038
747.308	15.69792
747.492	28.49679
747.676	17.22854
747.86	37.19762
748.044	19.76699
748.227	14.20207
748.411	44.90981
748.595	23.83594
748.779	17.98594
748.963	24.03474
749.146	23.02029
749.33	19.05255
749.514	17.36563
749.697	29.4421
749.881	18.57752
750.065	16.77738
750.248	23.65726
750.432	36.92665
750.616	22.66305
750.799	16.60413
750.983	38.26132
751.166	37.56714
751.35	14.45911
751.533	26.63509
751.717	33.45557
751.9	32.13463
752.084	21.74836
752.267	18.23688
752.451	17.20502
752.634	22.76983
752.818	26.43896
753.001	29.04901
753.184	30.14296
753.368	25.84805
753.551	4.6058
753.734	18.02688
753.918	38.61345
754.101	19.86923
754.284	26.95518
754.467	20.16396
754.651	19.32123
754.834	17.53574
755.017	30.17864
755.2	29.91582
755.384	17.88086
755.567	27.84413
755.75	28.81781
755.933	20.75458
756.116	28.8893
756.299	19.70572
756.482	17.76344
756.665	27.37418
756.848	23.05732
757.032	25.79951
757.215	15.65986
757.398	19.24456
757.581	18.9243
757.764	42.41979
757.947	22.77975
758.129	29.06879
758.312	6.63631
758.495	22.33338
758.678	22.35416
758.861	20.90236
759.044	36.94502
759.227	17.67298
759.41	17.63907
759.592	27.59776
759.775	21.59871
759.958	29.59943
760.141	15.68211
760.324	38.17374
760.506	33.60501
760.689	28.29522
760.872	38.69658
761.054	26.00079
761.237	22.70117
761.42	25.07453
761.602	29.18653
761.785	25.98864
761.968	31.42246
762.15	35.38357
762.333	22.73576
762.515	27.66677
762.698	21.54556
762.88	29.47858
763.063	26.59068
763.245	31.17209
763.428	18.2211
763.61	20.60604
763.793	15.90069
763.975	25.48791
764.158	21.60128
764.34	19.68081
764.522	17.7118
764.705	21.4164
764.887	33.43779
765.069	13.93259
765.252	26.76544
765.434	28.43969
765.616	23.33234
765.799	17.84993
765.981	27.67676
766.163	16.70016
766.345	32.25052
766.528	20.29128
766.71	9.97071
766.892	24.96546
767.074	31.97593
767.256	21.1768
767.438	35.42106
767.62	26.08801
767.802	41.17698
767.985	29.04693
768.167	36.38968
768.349	20.15301
768.531	28.37156
768.713	25.87806
768.895	30.40262
769.077	25.99618
769.259	43.92265
769.441	59.95696
769.623	30.09712
769.804	37.08842
769.986	34.67812
770.168	41.18213
770.35	51.91858
770.532	39.11856
770.714	41.68965
770.896	42.09472
771.077	15.07919
771.259	43.71655
771.441	38.39887
771.623	47.0414
771.804	59.23141
771.986	19.06919
772.168	27.41105
772.35	44.76961
772.531	58.2333
772.713	37.4827
772.894	49.18253
773.076	34.97372
773.258	29.00015
773.439	50.21689
773.621	56.31464
773.802	25.20729
773.984	29.82253
774.166	39.96736
774.347	53.95049
774.529	45.87167
774.71	15.24546
774.891	34.64511
775.073	30.69031
775.254	49.03701
775.436	29.66889
775.617	61.1288
775.799	32.32247
775.98	50.55537
776.161	56.75958
776.343	57.64738
776.524	35.27901
776.705	35.23459
776.886	17.65011
777.068	42.15312
777.249	85.22341
777.43	60.29779
777.611	22.68224
777.793	32.04882
777.974	58.65662
778.155	31.01547
778.336	24.93949
778.517	66.98741
778.698	28.14911
778.879	16.56851
779.061	8.31017
779.242	41.97599
779.423	41.70154
779.604	28.52309
779.785	33.64287
779.966	39.85521
780.147	49.37131
780.328	49.49072
780.509	68.71876
780.69	49.16398
780.871	28.34884
781.051	21.11738
781.232	37.71814
781.413	38.95197
781.594	33.30921
781.775	31.47569
781.956	28.33524
782.137	15.2046
782.317	31.24358
782.498	38.73696
782.679	35.61935
782.86	39.30889
783.04	29.07781
783.221	38.94578
783.402	61.88418
783.583	35.73104
783.763	46.99132
783.944	30.81525
784.124	21.39272
784.305	59.0069
784.486	45.95133
784.666	36.27446
784.847	18.96712
785.027	81.20804
785.208	27.26571
785.388	27.17534
785.569	29.22284
785.749	33.55241
785.93	29.24157
786.11	19.45425
786.291	44.41
786.471	39.7615
786.652	47.53339
786.832	35.79348
787.012	38.43305
787.193	24.04942
787.373	39.46948
787.553	30.94329
787.734	39.90422
787.914	31.95843
788.094	48.61889
788.275	40.43778
788.455	31.80769
788.635	21.67363
788.815	38.79485
788.995	26.24651
789.176	19.2622
789.356	28.08485
789.536	33.93567
789.716	42.5688
789.896	27.70193
790.076	30.94959
790.256	40.72951
790.436	14.1694
790.616	24.61564
790.796	39.68096
790.976	31.54473
791.156	27.30221
791.336	42.94811
791.516	41.00223
791.696	33.28824
791.876	19.94378
792.056	38.55655
792.236	48.30127
792.416	46.23261
792.596	41.05904
792.776	41.77634
792.956	44.96845
793.135	57.13222
793.315	22.44026
793.495	50.3977
793.675	45.22146
793.854	45.99734
794.034	48.78202
794.214	23.60593
794.394	46.35472
794.573	51.47812
794.753	37.67522
794.933	26.24606
795.112	39.79875
795.292	49.19319
795.472	57.25716
795.651	21.71666
795.831	35.99289
796.01	33.97928
796.19	31.89217
796.369	36.16025
796.549	41.64037
796.728	34.74281
796.908	21.56805
797.087	24.84646
797.267	32.36864
797.446	23.63966
797.626	41.08266
797.805	41.56629
797.984	28.62351
798.164	44.16027
798.343	26.7834
798.522	38.248
798.702	36.60993
798.881	22.6525
799.06	33.45534
799.239	16.05905
799.419	25.86532
799.598	57.97303
799.777	41.12742
799.956	48.41701
800.136	32.35724
800.315	26.11749
800.494	41.13523
800.673	49.05414
800.852	44.43665
801.031	49.69171
801.21	42.62478
801.389	31.19254
801.568	38.42388
801.747	60.97241
801.926	33.83138
802.105	54.77444
802.284	30.85299
802.463	57.46312
802.642	40.02868
802.821	38.43049
803	53.96968
803.179	47.43892
803.358	48.22295
803.537	27.66572
803.716	36.50027
803.895	28.5455
804.073	34.8898
804.252	27.82462
804.431	42.37662
804.61	34.85992
804.789	47.07594
804.967	32.28838
805.146	31.31566
805.325	64.5592
805.503	41.34028
805.682	23.40255
805.861	81.67645
806.039	53.3858
806.218	31.39283
806.397	39.49846
806.575	34.71048
806.754	38.38759
806.932	24.80578
807.111	49.74206
807.289	49.9019
807.468	38.29454
807.646	49.37367
807.825	43.24039
808.003	39.81118
808.182	50.96204
808.36	37.21962
808.539	25.98398
808.717	57.18135
808.895	29.22669
809.074	40.41076
809.252	37.27557
809.43	45.61209
809.609	52.37684
809.787	60.91733
809.965	34.49736
810.144	37.03206
810.322	38.79027
810.5	45.2545
810.678	33.08841
810.856	67.75066
811.035	49.83212
811.213	45.7088
811.391	56.15812
811.569	40.15356
811.747	91.07514
811.925	53.34947
812.103	30.31017
812.281	37.37046
812.459	63.17717
812.637	61.82661
812.816	52.12272
812.994	69.25272
813.171	57.22374
813.349	46.34672
813.527	51.63961
813.705	59.00236
813.883	72.41947
814.061	49.66757
814.239	63.46352
814.417	71.50897
814.595	48.72082
814.773	45.7241
814.95	40.71812
815.128	47.03589
815.306	42.28695
815.484	34.98517
815.662	29.36958
815.839	26.04759
816.017	32.66133
816.195	54.34767
816.372	34.09622
816.55	50.61853
816.728	63.59238
816.905	36.12771
817.083	59.88304
817.261	35.44281
817.438	86.75182
817.616	66.01075
817.793	32.15143
817.971	51.45032
818.148	49.87956
818.326	59.36432
818.503	46.1863
818.681	62.60909
818.858	34.25356
819.036	40.85841
819.213	44.61138
819.391	32.90495
819.568	31.00119
819.745	28.04907
819.923	50.16936
820.1	36.01664
820.277	30.37357
820.455	35.46821
820.632	37.38574
820.809	42.00389
820.986	25.60061
821.164	21.7807
821.341	18.39986
821.518	29.5269
821.695	21.22614
821.872	18.63006
822.05	16.10065
822.227	12.98915
822.404	13.79058
822.581	16.24161
822.758	13.02086
822.935	13.44127
823.112	14.90691
823.289	12.34539
823.466	15.28688
823.643	14.05755
823.82	17.02472
823.997	14.67107
824.174	17.49011
824.351	24.14302
824.528	22.17016
824.705	20.01069
824.882	21.82541
825.059	29.28967
825.236	20.36863
825.412	21.49355
825.589	26.86323
825.766	39.51208
825.943	24.36495
826.12	28.4142
826.296	19.45596
826.473	25.84431
826.65	26.08348
826.827	30.99744
827.003	20.28806
827.18	23.33512
827.357	26.46327
827.533	21.83229
827.71	12.20571
827.887	19.25093
828.063	22.24217
828.24	18.53894
828.416	25.69362
828.593	20.41542
828.769	29.72787
828.946	30.38624
829.122	31.16758
829.299	30.22219
829.475	18.12357
829.652	29.34649
829.828	50.47904
830.005	31.29085
830.181	42.58919
830.357	32.94492
830.534	46.95228
830.71	35.15059
830.886	43.88915
831.063	42.39397
831.239	53.57835
831.415	26.75486
831.592	57.01925
831.768	33.55493
831.944	31.08434
832.12	62.93937
832.296	57.2212
832.473	47.90382
832.649	34.03379
832.825	49.17124
833.001	29.54324
833.177	42.33879
833.353	39.48146
833.529	22.5326
833.705	35.73324
833.881	22.97532
834.058	21.88812
834.234	24.53877
834.41	24.41042
834.586	18.2577
834.761	22.15569
834.937	25.50022
835.113	26.74117
835.289	22.12677
835.465	26.25804
835.641	23.48474
835.817	25.31936
835.993	45.29874
836.169	21.44862
836.344	36.53668
836.52	40.73988
836.696	39.81556
836.872	28.97325
837.048	85.8443
837.223	32.03069
837.399	65.50755
837.575	51.73291
837.75	45.85877
837.926	67.01345
838.102	98.76848
838.277	77.52165
838.453	110.03872
838.628	108.11554
838.804	39.39072
838.98	96.04243
839.155	49.174
839.331	70.25764
839.506	46.76254
839.682	47.35641
839.857	70.67023
840.033	82.77263
840.208	36.9906
840.384	20.83875
840.559	37.32289
840.734	58.42233
840.91	77.17141
841.085	46.09228
841.26	45.60246
841.436	40.89968
841.611	38.69097
841.786	60.41583
841.962	78.14458
842.137	53.8123
842.312	31.30763
842.487	40.96676
842.663	36.68864
842.838	45.45086
843.013	146.94335
843.188	68.02784
843.363	75.52182
843.538	123.82847
843.714	125.15529
843.889	131.14945
844.064	137.55092
844.239	111.35691
844.414	124.52989
844.589	87.13636
844.764	157.65324
844.939	155.75055
845.114	168.26621
845.289	156.11234
845.464	220.45629
845.639	151.84304
845.814	73.89151
845.989	86.14014
846.163	106.22164
846.338	112.61967
846.513	161.54666
846.688	104.66912
846.863	105.86091
847.038	96.27694
847.212	114.73073
847.387	113.35252
847.562	117.42564
847.737	145.31691
847.911	56.16385
848.086	64.68231
848.261	208.41221
848.435	100.20818
848.61	151.35366
848.785	76.20955
848.959	154.73625
849.134	212.49427
849.308	219.70892
849.483	120.83796
849.658	180.99772
849.832	99.34388
850.007	86.28585
850.181	248.34455
850.356	88.86852
850.53	231.43455
850.705	70.90315
850.879	40.92559
851.053	108.28244
851.228	96.69398
851.402	126.43067
851.577	167.16903
851.751	185.38108
851.925	121.66107
852.099	57.34746
852.274	88.49018
852.448	110.50853
852.622	146.94692
852.797	110.85742
852.971	113.40088
853.145	115.01946
853.319	350.84624
853.493	172.91894
853.668	94.03591
853.842	214.16542
854.016	179.55433
854.19	203.26866
854.364	118.51892
854.538	129.44092
854.712	178.58243
854.886	108.91837
855.06	94.7114
855.234	40.58254
855.408	193.39553
855.582	166.80648
855.756	159.23736
855.93	218.38534
856.104	144.03372
856.278	169.70252
856.452	117.6626
856.626	158.69706
856.8	263.46441
856.973	146.65043
857.147	144.15471
857.321	145.2644
857.495	174.59549
857.669	111.92762
857.842	103.02909
858.016	172.15138
858.19	85.70092
858.364	281.56133
858.537	102.82806
858.711	128.84736
858.885	108.60995
859.058	96.0833
859.232	51.74159
859.405	59.32872
859.579	162.5604
859.753	139.02707
859.926	89.97415
860.1	65.04608
860.273	114.25037
860.447	204.14409
860.62	105.55989
860.794	244.96818
860.967	141.8892
861.141	175.02719
861.314	256.19224
861.487	155.06254
861.661	196.59329
861.834	201.09618
862.008	172.907
862.181	128.2657
862.354	130.10128
862.528	145.7355
862.701	97.77889
862.874	76.34138
863.047	105.97955
863.221	102.65428
863.394	50.16505
863.567	208.01541
863.74	45.755
863.913	166.79047
864.087	143.40615
864.26	172.68523
864.433	117.99554
864.606	220.80117
864.779	124.96769
864.952	60.85283
865.125	102.31807
865.298	119.59568
865.471	125.01907
865.644	254.79102
865.817	206.10719
865.99	171.63186
866.163	194.71171
866.336	108.74687
866.509	121.63087
866.682	108.08291
866.855	187.93103
867.028	81.75108
867.2	155.76054
867.373	53.9955
867.546	136.40178
867.719	263.93798
867.892	156.50249
868.064	86.83822
868.237	140.04893
868.41	128.36124
868.583	78.82842
868.755	81.09512
868.928	117.70612
869.101	267.1622
869.273	190.21128
869.446	153.62103
869.619	185.92095
869.791	122.13372
869.964	183.66469
870.136	175.90469
870.309	132.68893
870.481	139.66518
870.654	67.1745
870.826	134.6921
870.999	105.7371
871.171	177.17571
871.344	100.82901
871.516	128.45611
871.689	87.1196
871.861	124.61964
872.033	94.39302
872.206	112.99589
872.378	183.70802
872.55	114.92544
872.723	78.54036
872.895	113.00893
873.067	178.62184
873.24	200.23801
873.412	104.83198
873.584	112.9625
873.756	107.26445
873.928	144.01851
874.101	145.52531
874.273	156.19762
874.445	54.96653
874.617	75.18088
874.789	141.6794
874.961	106.42029
875.133	160.40453
875.305	130.97315
875.477	88.87122
875.649	66.14444
875.821	85.22087
875.993	214.78556
876.165	86.39187
876.337	143.3808
876.509	112.81968
876.681	145.20989
876.853	135.67664
877.025	141.3319
877.197	91.16635
877.369	84.21167
877.541	170.85213
877.712	47.32412
877.884	81.85335
878.056	158.26891
878.228	80.25053
878.4	153.2236
878.571	84.69047
878.743	60.0925
878.915	141.94403
879.086	79.83749
879.258	99.3003
879.43	94.11945
879.601	80.37636
879.773	87.01909
879.945	20.34578
880.116	35.96158
880.288	23.1843
880.459	25.70118
880.631	19.05397
880.802	23.5069
880.974	21.78971
881.145	15.33627
881.317	20.99368
881.488	15.28509
881.66	16.63428
881.831	15.43611
882.002	21.76662
882.174	15.59493
882.345	21.07247
882.517	10.53406
882.688	23.07593
882.859	19.89788
883.03	32.60611
883.202	30.023
883.373	24.93182
883.544	25.7082
883.715	46.01408
883.887	36.41183
884.058	31.05231
884.229	45.93464
884.4	47.8073
884.571	53.63699
884.742	44.91781
884.914	50.4717
885.085	74.17845
885.256	95.52602
885.427	73.3757
885.598	89.83862
885.769	95.34208
885.94	88.03247
886.111	57.73392
886.282	109.59239
886.453	88.8194
886.624	59.35736
886.795	110.50907
886.966	89.36302
887.136	115.69697
887.307	86.42296
887.478	147.86437
887.649	131.91887
887.82	133.82759
887.991	107.20121
888.161	143.54698
888.332	142.22772
888.503	75.29607
888.674	190.84283
888.844	207.77962
889.015	159.05356
889.186	75.96593
889.356	195.05
889.527	74.13705
889.698	339.18716
889.868	101.58549
890.039	138.7363
890.209	119.75155
890.38	173.88521
890.551	148.31901
890.721	204.26412
890.892	170.29251
891.062	118.22238
891.233	145.08115
891.403	113.28491
891.574	84.63489
891.744	107.75141
891.914	149.11521
892.085	134.27409
892.255	45.17532
892.425	192.6023
892.596	160.06366
892.766	148.91134
892.936	209.59687
893.107	171.70638
893.277	92.10118
893.447	72.5158
893.618	53.08874
893.788	109.82765
893.958	54.20818
894.128	60.45373
894.298	69.66788
894.468	92.43165
894.639	42.08863
894.809	28.56345
894.979	47.37824
895.149	56.45975
895.319	47.54587
895.489	66.25445
895.659	80.92725
895.829	54.95062
895.999	56.91535
896.169	38.06889
896.339	49.48942
896.509	106.55213
896.679	122.11118
896.849	116.90926
897.019	162.63531
897.189	124.61721
897.358	109.68962
897.528	168.68798
897.698	53.67019
897.868	155.83977
898.038	260.86312
898.208	240.37792
898.377	84.39141
898.547	254.09122
898.717	399.14504
898.886	158.43361
899.056	252.11665
899.226	368.51542
899.395	214.36188
899.565	279.4992
899.735	185.78678
899.904	313.53488
900.074	266.92937
900.244	120.02858
900.413	481.1404
900.583	100.38307
900.752	171.64805
900.922	291.26001
901.091	40.44004
901.261	251.39518
901.43	235.27122
901.599	238.93976
901.769	534.93285
901.938	285.6064
902.108	264.76283
902.277	358.68524
902.446	95.49095
902.616	102.62842
902.785	163.34055
902.954	281.7083
903.124	176.83802
903.293	139.2934
903.462	79.9796
903.631	109.9582
903.801	80.92337
903.97	46.22519
904.139	73.71992
904.308	56.02369
904.477	45.30661
904.646	26.20954
904.816	42.67332
904.985	62.26681
905.154	96.25317
