Data from WindowProjectSample3_Transmission__45__00045.txt Node

Date: Sun May 04 11:11:46 EDT 2025
User: jessi
Spectrometer: SR400872
Trigger mode: 0
Integration Time (sec): 5.000050E-1
Scans to average: 20
Electric dark correction enabled: true
Nonlinearity correction enabled: true
Boxcar width: 0
XAxis mode: Wavelengths
Number of Pixels in Spectrum: 3648
>>>>>Begin Spectral Data<<<<<
184.909	-1281.75266
185.132	-1498.59211
185.355	-1162.6854
185.578	-1063.1706
185.801	1268.81616
186.024	-963.3328
186.247	-4885.97321
186.47	-1746.65338
186.693	-126.17452
186.916	-379.00974
187.139	-792.18223
187.362	-2847.00897
187.585	-692.8666
187.808	-4985.02072
188.031	8241.89878
188.254	-2387.11636
188.476	-8825.25285
188.699	-1076.46814
188.922	714.92971
189.145	-1240.90933
189.368	3053.56896
189.591	-2440.1384
189.813	-1489.05575
190.036	-852.46031
190.259	-1174.66113
190.482	-1556.30621
190.705	-2397.9342
190.927	-727.92303
191.15	-1495.809
191.373	-1145.18081
191.595	-1270.06181
191.818	-1321.76982
192.041	-631.77625
192.263	-1119.44133
192.486	-606.31077
192.709	-1541.08891
192.931	-3193.05937
193.154	-1200.55836
193.377	-1599.21824
193.599	-3249.449
193.822	-3455.82081
194.044	-3060.00958
194.267	-1814.44883
194.489	331.59129
194.712	-991.69076
194.934	-1714.93338
195.157	-786.16965
195.379	-1294.25169
195.602	-845.83341
195.824	-1264.75146
196.047	-2004.74857
196.269	-1075.73818
196.492	-1385.63368
196.714	-1247.83337
196.936	-1252.47765
197.159	-897.00907
197.381	-739.12367
197.604	-512.30475
197.826	-2067.56381
198.048	-1164.03338
198.271	-1622.90454
198.493	-1161.80277
198.715	-972.13166
198.938	-3232.82385
199.16	-3972.82383
199.382	-1270.77562
199.604	-1188.11062
199.827	-1849.24217
200.049	-1650.70269
200.271	-1218.64309
200.493	-1492.77872
200.715	-973.34561
200.938	-831.10818
201.16	-959.87413
201.382	-1049.31428
201.604	-1268.98805
201.826	-724.60421
202.048	-843.0025
202.27	-1415.54114
202.492	-1396.63734
202.715	-1858.81696
202.937	-2024.19692
203.159	-1319.76915
203.381	-1559.35472
203.603	-1002.18356
203.825	-4892.23347
204.047	-1617.33566
204.269	-1423.39422
204.491	-1303.85299
204.713	-1533.33891
204.935	-1407.92216
205.156	-2712.7556
205.378	-2807.35767
205.6	-1486.6883
205.822	-1117.39587
206.044	1307.84281
206.266	-1288.90197
206.488	-930.13954
206.71	-1715.58556
206.932	-1758.47967
207.153	-1097.01571
207.375	-1370.07756
207.597	-1100.7614
207.819	-1120.2005
208.041	-1225.19621
208.262	-1671.6172
208.484	-818.2865
208.706	-2224.41415
208.927	-751.28401
209.149	-1382.45136
209.371	-1224.0245
209.593	-1312.50211
209.814	-594.45556
210.036	-912.80752
210.258	-805.04785
210.479	-1013.74197
210.701	-1907.55465
210.922	-1231.50915
211.144	-988.94972
211.366	-1086.25565
211.587	1397.15986
211.809	-1087.59654
212.03	-6146.93022
212.252	935.44875
212.473	-939.92038
212.695	-19465.38353
212.916	-3516.62448
213.138	-1611.86421
213.359	-953.85975
213.581	-1418.00135
213.802	-794.71246
214.024	-1328.26453
214.245	-11400.24306
214.466	-857.2568
214.688	-1434.43136
214.909	-980.13922
215.131	-2724.4064
215.352	-3676.37673
215.573	-1084.17775
215.795	-1866.67851
216.016	-1486.6766
216.237	-2934.41302
216.459	-1463.55638
216.68	-1062.7915
216.901	-1517.24639
217.122	12238.11222
217.344	-978.10156
217.565	-1317.40104
217.786	-1320.14578
218.007	-1027.50079
218.228	-1211.48349
218.45	-1119.44486
218.671	-1150.67026
218.892	-1032.59514
219.113	-1593.80417
219.334	-99.35493
219.555	-1620.76322
219.776	-1561.11023
219.997	-1243.58903
220.219	17154.06553
220.44	-1247.13641
220.661	-3439.38147
220.882	-904.84802
221.103	1535.03592
221.324	-2779.84951
221.545	-1149.51896
221.766	-1320.91975
221.987	-1962.5994
222.208	-1994.245
222.429	-758.67338
222.65	-776.6974
222.87	-1522.72958
223.091	-3381.19749
223.312	3169.73795
223.533	-1203.74295
223.754	-1564.29455
223.975	-2245.61389
224.196	8637.64193
224.417	-8022.79351
224.637	4237.34252
224.858	191.51829
225.079	-1871.68351
225.3	24349.37712
225.521	-1059.80397
225.741	-5444.92266
225.962	7510.31216
226.183	358.17683
226.404	-3646.40223
226.624	2446.97459
226.845	-83288.13687
227.066	-623502.08007
227.286	909.36277
227.507	318.01809
227.728	283.56267
227.948	675.61603
228.169	169.28917
228.389	176.749
228.61	98.44387
228.831	133.28396
229.051	9.90614
229.272	72.71281
229.492	104.86987
229.713	29.92967
229.933	70.3966
230.154	64.80823
230.374	101.9109
230.595	71.75005
230.815	43.75644
231.036	73.86777
231.256	-9.66537
231.477	128.11462
231.697	77.28952
231.917	83.32254
232.138	118.80394
232.358	235.73489
232.579	193.67457
232.799	32.1707
233.019	201.67101
233.24	236.70264
233.46	85.02542
233.68	122.99687
233.901	80.11718
234.121	54.43848
234.341	21.09331
234.561	-11.9883
234.782	40.54775
235.002	131.45574
235.222	-0.77311
235.442	121.07428
235.662	59.86538
235.883	117.00216
236.103	93.94667
236.323	63.58599
236.543	52.35696
236.763	75.66777
236.983	79.36174
237.203	76.47818
237.423	114.44732
237.643	172.09545
237.864	148.59058
238.084	38.47356
238.304	44.98524
238.524	82.85357
238.744	77.36539
238.964	135.12966
239.184	114.00535
239.404	124.23891
239.624	64.41854
239.843	106.17547
240.063	63.65071
240.283	42.49881
240.503	45.57062
240.723	45.769
240.943	27.79264
241.163	34.95944
241.383	24.69978
241.603	13.3354
241.822	15.65789
242.042	10.70254
242.262	14.82033
242.482	14.76584
242.702	16.58042
242.921	5.58594
243.141	11.09141
243.361	10.41084
243.581	15.11689
243.8	13.2615
244.02	7.89576
244.24	15.25695
244.459	13.96875
244.679	30.34053
244.899	19.34373
245.118	22.93999
245.338	20.27289
245.558	23.40515
245.777	14.41533
245.997	17.77592
246.216	17.41203
246.436	10.36785
246.655	7.35292
246.875	5.74782
247.094	10.24074
247.314	3.77486
247.533	6.25408
247.753	6.93242
247.972	5.69608
248.192	2.16493
248.411	3.57789
248.631	5.26861
248.85	6.94564
249.07	7.10679
249.289	9.67551
249.508	6.92608
249.728	11.67538
249.947	11.42257
250.166	14.71672
250.386	6.99899
250.605	11.10652
250.824	18.98537
251.044	12.81104
251.263	39.54702
251.482	23.54241
251.701	19.02989
251.921	0.32257
252.14	6.17326
252.359	7.29422
252.578	16.58087
252.798	5.87606
253.017	13.59083
253.236	7.33276
253.455	9.98405
253.674	18.45573
253.893	8.35165
254.112	13.2891
254.331	18.73128
254.551	16.54192
254.77	8.9302
254.989	22.49633
255.208	17.58793
255.427	26.72214
255.646	21.56667
255.865	33.37484
256.084	15.17001
256.303	18.03769
256.522	23.10142
256.741	6.06853
256.96	6.00557
257.179	15.68421
257.397	17.71321
257.616	9.91726
257.835	10.6619
258.054	25.32344
258.273	17.40369
258.492	17.07844
258.711	11.29457
258.93	5.31365
259.148	7.8625
259.367	7.34567
259.586	8.99548
259.805	4.3422
260.023	7.78048
260.242	5.7542
260.461	4.43572
260.68	2.19014
260.898	6.70334
261.117	2.4465
261.336	1.39241
261.554	5.42221
261.773	5.31757
261.992	1.5576
262.21	5.37509
262.429	6.504
262.648	10.81406
262.866	13.07049
263.085	9.44385
263.303	7.89601
263.522	14.3483
263.74	13.63018
263.959	24.08427
264.178	12.86967
264.396	10.07058
264.615	8.3942
264.833	17.69325
265.051	14.88246
265.27	17.43834
265.488	17.97442
265.707	11.2197
265.925	17.5995
266.144	8.97417
266.362	9.96929
266.58	9.69233
266.799	7.89491
267.017	9.69565
267.235	8.63854
267.454	5.96882
267.672	2.92063
267.89	7.20817
268.109	7.88124
268.327	7.04571
268.545	1.4442
268.763	6.8311
268.982	2.91921
269.2	7.70393
269.418	4.91624
269.636	4.17957
269.854	7.50062
270.073	5.31493
270.291	3.39017
270.509	3.2577
270.727	7.51341
270.945	12.09574
271.163	11.64815
271.381	2.8626
271.599	4.97236
271.817	8.09533
272.036	3.06056
272.254	5.73282
272.472	3.87313
272.69	3.94703
272.908	4.27441
273.126	6.41336
273.344	8.59557
273.562	3.25172
273.779	4.27564
273.997	6.87632
274.215	6.27804
274.433	4.63861
274.651	7.38855
274.869	7.01741
275.087	4.55051
275.305	6.45481
275.523	4.14413
275.74	5.02872
275.958	8.95141
276.176	12.82157
276.394	3.99198
276.612	5.55474
276.829	5.44422
277.047	4.40813
277.265	4.83529
277.483	5.90328
277.7	6.52213
277.918	5.45762
278.136	10.39385
278.353	4.98215
278.571	2.67912
278.789	7.92946
279.006	2.02494
279.224	4.94118
279.442	8.09146
279.659	6.05389
279.877	3.71629
280.094	8.63874
280.312	2.07266
280.529	5.40211
280.747	1.91249
280.964	4.7732
281.182	9.02289
281.399	4.89931
281.617	6.05078
281.834	4.12844
282.052	3.01535
282.269	5.40019
282.487	4.34503
282.704	3.66296
282.921	3.53821
283.139	5.52097
283.356	6.73864
283.574	6.75121
283.791	3.20552
284.008	8.51769
284.226	5.33828
284.443	5.50046
284.66	7.1091
284.877	5.89352
285.095	3.77444
285.312	2.81449
285.529	1.63964
285.746	1.58738
285.964	3.48663
286.181	2.38983
286.398	3.23217
286.615	4.57448
286.832	4.25797
287.05	1.27088
287.267	3.08727
287.484	3.21885
287.701	4.45195
287.918	4.19266
288.135	4.43889
288.352	2.14492
288.569	2.60049
288.786	4.15793
289.003	3.25073
289.22	5.00385
289.437	2.96803
289.654	4.76567
289.871	4.72525
290.088	4.85701
290.305	3.73039
290.522	3.12581
290.739	3.26308
290.956	5.07114
291.173	5.90181
291.39	5.75725
291.607	3.80279
291.824	3.10945
292.04	2.3191
292.257	4.83362
292.474	5.31231
292.691	3.42949
292.908	1.85214
293.125	3.05372
293.341	1.97676
293.558	8.12661
293.775	3.64115
293.992	3.79205
294.208	1.44303
294.425	2.43423
294.642	3.11316
294.858	4.42323
295.075	1.18849
295.292	3.38863
295.508	4.07755
295.725	5.67631
295.942	3.00805
296.158	2.08985
296.375	3.42285
296.591	2.81008
296.808	2.79807
297.024	3.30662
297.241	3.52979
297.458	3.84261
297.674	0.53155
297.891	2.98108
298.107	2.44806
298.323	1.84991
298.54	4.29901
298.756	2.3318
298.973	1.06466
299.189	4.65034
299.406	2.17032
299.622	4.77352
299.838	4.90824
300.055	4.25441
300.271	1.19462
300.487	1.87289
300.704	2.21582
300.92	1.33198
301.136	6.40484
301.353	4.86247
301.569	3.31996
301.785	3.72462
302.001	4.38006
302.218	3.98729
302.434	4.18577
302.65	1.51134
302.866	2.73831
303.083	6.71104
303.299	6.48842
303.515	3.5286
303.731	3.78638
303.947	1.49088
304.163	2.54472
304.379	3.70633
304.595	4.08071
304.812	2.60512
305.028	2.24391
305.244	2.99215
305.46	4.51926
305.676	4.61934
305.892	5.53434
306.108	4.38175
306.324	3.05383
306.54	6.16296
306.756	4.24283
306.972	4.19431
307.187	3.24891
307.403	5.86568
307.619	2.78392
307.835	5.2503
308.051	5.53612
308.267	2.08347
308.483	5.24943
308.699	4.24172
308.914	3.59827
309.13	3.77227
309.346	1.27365
309.562	2.02935
309.778	1.34131
309.993	4.26963
310.209	3.53754
310.425	1.6437
310.641	2.97764
310.856	2.15573
311.072	1.89305
311.288	3.23024
311.503	3.54299
311.719	1.03734
311.935	0.90722
312.15	3.81919
312.366	3.58297
312.581	4.05427
312.797	3.35395
313.013	4.45301
313.228	2.51325
313.444	3.39806
313.659	2.16963
313.875	4.26703
314.09	3.45392
314.306	5.63212
314.521	4.65409
314.737	4.5464
314.952	4.05352
315.168	3.74042
315.383	4.08505
315.599	3.28215
315.814	3.37784
316.029	5.05741
316.245	1.99367
316.46	1.22691
316.675	5.57016
316.891	6.52943
317.106	8.10334
317.321	4.60678
317.537	4.43048
317.752	4.99597
317.967	4.95989
318.183	2.80574
318.398	3.28648
318.613	5.2193
318.828	5.86662
319.043	4.90444
319.259	3.46759
319.474	4.06236
319.689	5.52263
319.904	1.14207
320.119	5.40085
320.334	4.34438
320.549	3.43345
320.765	5.55489
320.98	4.47425
321.195	5.03327
321.41	3.95308
321.625	5.23274
321.84	6.539
322.055	6.6033
322.27	3.17286
322.485	2.29189
322.7	4.26036
322.915	5.53167
323.13	2.88401
323.345	6.36706
323.56	4.65234
323.775	5.13909
323.989	4.77987
324.204	4.21732
324.419	5.11439
324.634	1.91635
324.849	3.77299
325.064	6.91583
325.279	5.25006
325.493	4.6229
325.708	5.42869
325.923	2.68738
326.138	2.94262
326.352	6.39757
326.567	5.16135
326.782	3.40074
326.997	2.96032
327.211	4.8009
327.426	4.58863
327.641	3.65107
327.855	1.6996
328.07	4.96087
328.285	6.82609
328.499	3.64239
328.714	4.73779
328.928	5.24021
329.143	4.29551
329.358	5.9491
329.572	5.67724
329.787	6.10033
330.001	8.17859
330.216	2.20244
330.43	6.72276
330.645	6.72896
330.859	5.45101
331.074	2.97227
331.288	4.36152
331.503	6.73495
331.717	2.58644
331.931	4.09886
332.146	4.62624
332.36	7.39739
332.575	4.8387
332.789	4.59533
333.003	4.11576
333.218	5.02256
333.432	3.3981
333.646	5.50162
333.86	6.79023
334.075	7.21521
334.289	3.65275
334.503	2.67036
334.717	5.1545
334.932	5.06016
335.146	5.68753
335.36	3.27753
335.574	5.12211
335.788	4.70512
336.003	5.78631
336.217	5.59275
336.431	4.65069
336.645	3.64339
336.859	2.6366
337.073	4.38065
337.287	4.73945
337.501	2.86988
337.715	4.76672
337.929	5.3583
338.143	2.75665
338.357	4.16178
338.571	3.23198
338.785	5.60462
338.999	3.48295
339.213	3.36675
339.427	2.36397
339.641	6.0783
339.855	3.47684
340.069	3.22522
340.283	5.78679
340.497	6.58238
340.711	5.1058
340.924	4.19503
341.138	2.93004
341.352	2.44245
341.566	4.51057
341.78	1.94607
341.993	3.40803
342.207	3.06097
342.421	4.70913
342.635	3.95905
342.848	3.51501
343.062	1.05378
343.276	3.4002
343.49	7.39286
343.703	3.28404
343.917	5.57423
344.131	5.82549
344.344	3.25941
344.558	3.61631
344.771	2.71768
344.985	5.7787
345.199	6.76659
345.412	4.73336
345.626	4.77895
345.839	1.94254
346.053	2.7851
346.266	2.77205
346.48	5.15844
346.693	4.67125
346.907	4.84458
347.12	3.02618
347.334	4.35869
347.547	4.70702
347.76	4.17825
347.974	5.96943
348.187	4.88842
348.401	3.96042
348.614	3.27858
348.827	3.99667
349.041	5.01546
349.254	1.99284
349.467	4.22262
349.681	2.9091
349.894	3.31915
350.107	5.8283
350.32	6.97634
350.534	2.33381
350.747	3.71681
350.96	2.89619
351.173	3.25855
351.386	3.60707
351.6	3.58878
351.813	3.5152
352.026	4.00711
352.239	2.67586
352.452	3.95311
352.665	5.59615
352.878	4.00325
353.092	7.0896
353.305	5.27406
353.518	4.48495
353.731	2.99332
353.944	5.4303
354.157	3.63191
354.37	3.34471
354.583	2.75555
354.796	2.27095
355.009	5.74558
355.222	4.41915
355.435	4.38461
355.647	5.50406
355.86	3.06528
356.073	4.16337
356.286	3.65067
356.499	5.3689
356.712	4.99312
356.925	4.52452
357.138	5.50003
357.35	2.87058
357.563	3.485
357.776	4.18754
357.989	3.85506
358.201	4.86025
358.414	4.5673
358.627	5.5021
358.84	3.88796
359.052	2.67673
359.265	2.93695
359.478	5.33246
359.69	0.97052
359.903	5.25601
360.116	5.21022
360.328	2.05662
360.541	5.13387
360.753	3.21724
360.966	3.4977
361.179	3.64755
361.391	3.46583
361.604	2.8603
361.816	3.39851
362.029	3.29205
362.241	2.99031
362.454	3.50604
362.666	2.96627
362.879	4.2818
363.091	3.52841
363.304	3.15846
363.516	3.72915
363.728	2.543
363.941	4.63429
364.153	3.79182
364.366	1.42778
364.578	2.56871
364.79	4.62089
365.003	4.12085
365.215	3.40277
365.427	4.73075
365.639	5.52689
365.852	4.22008
366.064	5.9949
366.276	3.60477
366.488	4.63163
366.701	3.68273
366.913	3.66546
367.125	3.82352
367.337	3.22888
367.549	3.51834
367.762	4.07248
367.974	4.00351
368.186	3.53774
368.398	5.52018
368.61	4.92974
368.822	4.98695
369.034	4.055
369.246	5.02842
369.458	7.29077
369.67	3.1161
369.882	6.53217
370.094	1.69965
370.306	6.04391
370.518	3.69285
370.73	3.65934
370.942	3.34927
371.154	4.08098
371.366	3.77174
371.578	4.71705
371.79	3.5002
372.002	5.55356
372.214	6.62564
372.425	4.35169
372.637	5.90048
372.849	4.68549
373.061	1.62004
373.273	5.07826
373.484	4.92852
373.696	5.34278
373.908	1.60367
374.12	5.58896
374.331	4.9075
374.543	3.47433
374.755	3.13535
374.967	4.59698
375.178	5.34706
375.39	3.903
375.602	4.48976
375.813	2.83286
376.025	2.85212
376.236	4.3564
376.448	4.42701
376.66	4.14862
376.871	4.01554
377.083	5.29024
377.294	5.92321
377.506	3.80738
377.717	6.12741
377.929	4.68591
378.14	3.70545
378.352	5.02948
378.563	4.98664
378.775	6.17021
378.986	3.51398
379.197	4.51044
379.409	3.73438
379.62	5.40616
379.832	4.72729
380.043	4.34939
380.254	4.90757
380.466	3.06146
380.677	7.77112
380.888	7.24002
381.1	7.89105
381.311	7.64265
381.522	4.83164
381.733	8.19046
381.945	4.44591
382.156	4.63893
382.367	3.90774
382.578	8.1912
382.789	8.10578
383.001	4.02106
383.212	6.54185
383.423	6.85302
383.634	6.05652
383.845	5.51412
384.056	4.15815
384.267	4.71441
384.478	4.73441
384.69	3.55753
384.901	5.37955
385.112	5.19371
385.323	6.94967
385.534	5.31131
385.745	5.07564
385.956	5.28738
386.167	3.76966
386.378	5.7165
386.588	3.68585
386.799	3.96352
387.01	3.0081
387.221	5.92989
387.432	4.88767
387.643	7.16445
387.854	4.65973
388.065	4.67072
388.275	4.63827
388.486	4.47521
388.697	5.11473
388.908	4.6365
389.119	6.36675
389.329	6.9094
389.54	5.1655
389.751	5.581
389.962	6.46309
390.172	5.25714
390.383	4.72069
390.594	4.34409
390.804	4.36705
391.015	4.52685
391.226	5.27915
391.436	5.90904
391.647	5.41437
391.858	5.9309
392.068	3.34287
392.279	4.05999
392.489	5.41006
392.7	6.28906
392.91	4.0555
393.121	4.38261
393.331	5.71003
393.542	6.69605
393.752	5.65827
393.963	5.68921
394.173	5.51318
394.384	6.20524
394.594	5.38501
394.804	4.04751
395.015	5.35635
395.225	6.06487
395.436	4.12318
395.646	5.95761
395.856	4.6402
396.067	3.94982
396.277	6.49563
396.487	6.04067
396.697	5.57268
396.908	6.46179
397.118	6.26208
397.328	5.76015
397.538	6.52957
397.749	4.88026
397.959	6.5561
398.169	6.22935
398.379	4.01498
398.589	6.28989
398.8	5.7048
399.01	5.83269
399.22	5.22704
399.43	8.19701
399.64	5.31292
399.85	6.20285
400.06	5.74224
400.27	4.98508
400.48	5.58806
400.69	7.18146
400.9	5.10815
401.11	4.70832
401.32	6.71688
401.53	5.17225
401.74	7.40925
401.95	6.44924
402.16	4.95355
402.37	6.43782
402.58	5.12741
402.79	6.52872
403	6.75701
403.209	5.00263
403.419	6.69229
403.629	5.27475
403.839	6.82127
404.049	6.87046
404.258	5.21558
404.468	4.92382
404.678	6.55873
404.888	6.85509
405.097	5.37551
405.307	5.82797
405.517	6.46442
405.727	6.41002
405.936	5.56221
406.146	6.24663
406.356	7.37794
406.565	5.94652
406.775	5.50527
406.984	5.49454
407.194	8.01336
407.404	6.06114
407.613	6.34957
407.823	6.83764
408.032	7.48519
408.242	7.17831
408.451	5.40479
408.661	6.04058
408.87	8.12276
409.08	5.71956
409.289	6.59335
409.499	6.48358
409.708	6.3333
409.918	4.02828
410.127	6.3801
410.336	7.94034
410.546	6.77237
410.755	5.88862
410.964	5.69955
411.174	5.44107
411.383	6.84411
411.592	6.60233
411.802	5.21382
412.011	7.28359
412.22	6.20556
412.429	7.65216
412.639	7.821
412.848	7.76464
413.057	7.99878
413.266	7.78318
413.475	6.56487
413.685	7.40458
413.894	7.4366
414.103	7.68437
414.312	7.13992
414.521	6.36656
414.73	6.66954
414.939	8.52971
415.148	7.29513
415.357	6.93946
415.566	6.25048
415.776	6.18178
415.985	6.09228
416.194	7.42135
416.403	8.33603
416.611	5.39027
416.82	6.00934
417.029	6.83981
417.238	6.0036
417.447	5.93631
417.656	6.28315
417.865	5.94153
418.074	6.31737
418.283	6.58041
418.492	7.5501
418.7	7.33129
418.909	8.20645
419.118	6.82973
419.327	7.11633
419.536	6.84987
419.744	6.2737
419.953	7.63503
420.162	7.64278
420.371	6.23028
420.579	6.07454
420.788	7.22704
420.997	7.29018
421.205	7.19004
421.414	6.89579
421.623	6.96266
421.831	6.5004
422.04	7.38423
422.249	6.33535
422.457	7.12382
422.666	6.57012
422.874	7.71903
423.083	7.62127
423.291	7.53466
423.5	7.13472
423.708	7.19617
423.917	7.73461
424.125	7.1442
424.334	6.80112
424.542	8.77829
424.751	7.88815
424.959	7.76541
425.167	8.14192
425.376	7.95285
425.584	7.37808
425.793	7.80045
426.001	6.79624
426.209	8.07958
426.418	6.79412
426.626	6.90918
426.834	6.73742
427.042	7.49787
427.251	6.79473
427.459	8.12371
427.667	7.55103
427.875	6.21085
428.084	6.9994
428.292	8.45846
428.5	7.85457
428.708	6.31776
428.916	6.5173
429.124	7.50864
429.333	7.07948
429.541	7.09057
429.749	7.46449
429.957	7.21119
430.165	9.63375
430.373	6.18256
430.581	7.62411
430.789	8.6578
430.997	7.03974
431.205	6.78848
431.413	7.62246
431.621	7.01953
431.829	7.97877
432.037	7.10134
432.245	7.64947
432.453	7.79452
432.661	7.28811
432.869	9.27153
433.076	6.67539
433.284	7.31501
433.492	8.12095
433.7	8.72171
433.908	7.16586
434.116	7.5993
434.323	7.82552
434.531	7.63746
434.739	8.04503
434.947	8.30234
435.154	8.39016
435.362	7.72924
435.57	7.44972
435.778	7.23385
435.985	8.0166
436.193	7.18817
436.401	8.87999
436.608	7.7123
436.816	7.27863
437.023	9.21152
437.231	9.35768
437.439	7.90066
437.646	8.31688
437.854	8.09058
438.061	8.38297
438.269	7.60221
438.476	8.33142
438.684	7.97953
438.891	7.52343
439.099	7.24579
439.306	6.56454
439.514	6.95826
439.721	8.14504
439.929	7.25106
440.136	8.20351
440.343	8.03469
440.551	7.51799
440.758	9.27963
440.965	8.37524
441.173	7.98756
441.38	7.46098
441.587	8.13795
441.795	7.5604
442.002	8.02889
442.209	7.99821
442.416	8.49099
442.624	8.51925
442.831	8.36261
443.038	7.49527
443.245	7.02972
443.452	7.6553
443.66	8.68765
443.867	7.41949
444.074	7.47374
444.281	7.39311
444.488	7.60836
444.695	7.87373
444.902	7.5007
445.109	8.4555
445.316	7.56258
445.523	7.54002
445.73	7.06412
445.937	8.05667
446.144	8.26079
446.351	8.21268
446.558	7.23596
446.765	8.52691
446.972	8.65914
447.179	7.80224
447.386	8.92698
447.593	7.69048
447.8	8.91531
448.007	7.83217
448.214	8.04191
448.42	7.61826
448.627	9.11731
448.834	8.00366
449.041	7.74523
449.248	7.79
449.454	8.88377
449.661	9.84172
449.868	7.69593
450.075	7.41537
450.281	6.26749
450.488	7.11156
450.695	7.35378
450.901	7.23288
451.108	7.75358
451.315	9.12515
451.521	7.82301
451.728	8.89874
451.935	7.32956
452.141	7.96524
452.348	7.99378
452.554	7.88588
452.761	7.67518
452.967	9.41757
453.174	8.25247
453.38	8.31209
453.587	6.98547
453.793	8.20336
454	8.73443
454.206	9.96915
454.413	9.19456
454.619	8.64296
454.825	7.40275
455.032	8.63897
455.238	9.04454
455.445	7.03309
455.651	8.20201
455.857	6.37878
456.064	7.85256
456.27	7.9212
456.476	7.7776
456.682	6.76178
456.889	8.35165
457.095	8.55071
457.301	10.22582
457.507	8.17784
457.714	8.23007
457.92	7.9419
458.126	7.49704
458.332	7.96285
458.538	7.52144
458.744	7.72939
458.951	7.64247
459.157	9.36854
459.363	8.19759
459.569	7.89952
459.775	8.73135
459.981	7.46506
460.187	7.9938
460.393	8.68723
460.599	9.1151
460.805	8.34165
461.011	8.20768
461.217	9.29918
461.423	9.23591
461.629	8.13156
461.835	8.92281
462.041	8.10884
462.247	9.82978
462.453	8.13655
462.658	8.25561
462.864	8.98176
463.07	8.55641
463.276	8.46304
463.482	8.55185
463.688	9.61247
463.893	7.87154
464.099	8.00962
464.305	9.91557
464.511	8.02339
464.716	8.36029
464.922	9.00482
465.128	7.72251
465.333	9.95347
465.539	8.93548
465.745	8.23823
465.95	8.53422
466.156	10.95501
466.362	9.53825
466.567	8.34721
466.773	7.83172
466.978	9.86494
467.184	7.53407
467.389	6.51868
467.595	8.86146
467.8	7.5454
468.006	9.52475
468.211	9.43392
468.417	7.41725
468.622	9.05603
468.828	9.0536
469.033	8.65642
469.239	11.18727
469.444	7.99782
469.649	9.34824
469.855	8.4835
470.06	8.65644
470.266	7.52434
470.471	9.01926
470.676	8.81283
470.881	7.02293
471.087	9.93951
471.292	10.17596
471.497	7.41033
471.703	8.36495
471.908	7.93453
472.113	8.64604
472.318	9.27087
472.523	7.47248
472.729	8.79735
472.934	8.90347
473.139	8.20895
473.344	8.95028
473.549	9.66725
473.754	7.73366
473.959	10.36701
474.164	7.79296
474.369	8.21859
474.575	9.34899
474.78	8.58749
474.985	7.93107
475.19	7.03855
475.395	7.85761
475.6	8.16431
475.804	9.70189
476.009	8.46786
476.214	8.44153
476.419	7.98743
476.624	6.83483
476.829	7.82324
477.034	8.87382
477.239	7.65602
477.444	8.53173
477.648	8.9509
477.853	8.92654
478.058	8.00427
478.263	7.68937
478.468	7.35175
478.672	7.52574
478.877	9.45781
479.082	10.02294
479.287	8.67412
479.491	8.41382
479.696	7.42193
479.901	9.16862
480.105	9.00455
480.31	7.65504
480.515	8.26098
480.719	10.43188
480.924	7.76528
481.128	7.2528
481.333	8.42593
481.538	8.42142
481.742	7.81554
481.947	8.5378
482.151	8.57182
482.356	7.93193
482.56	8.90344
482.765	9.64599
482.969	11.62681
483.174	13.24349
483.378	15.40286
483.582	15.57615
483.787	16.91386
483.991	17.11086
484.196	17.29525
484.4	16.92979
484.604	16.9859
484.809	15.27886
485.013	14.61674
485.217	13.14836
485.422	11.75498
485.626	10.63488
485.83	9.90566
486.034	9.60541
486.239	9.86345
486.443	9.96764
486.647	10.17234
486.851	11.23162
487.055	12.0543
487.26	11.7573
487.464	12.44388
487.668	12.0618
487.872	12.13635
488.076	12.69076
488.28	11.92237
488.484	11.13386
488.688	10.85393
488.892	10.37925
489.096	9.75949
489.3	8.78451
489.504	8.37807
489.708	8.80383
489.912	8.79382
490.116	8.65228
490.32	7.90071
490.524	8.42341
490.728	8.64421
490.932	8.99106
491.136	9.35436
491.34	10.54044
491.544	10.83889
491.748	10.4279
491.951	10.44073
492.155	10.09057
492.359	9.96323
492.563	8.7389
492.767	8.28698
492.97	8.05614
493.174	7.97106
493.378	8.17534
493.582	7.73685
493.785	8.35189
493.989	8.47842
494.193	8.46038
494.396	8.12724
494.6	8.92417
494.804	8.3383
495.007	7.84628
495.211	7.74826
495.414	8.0772
495.618	8.28696
495.822	9.11712
496.025	8.25057
496.229	8.83681
496.432	7.51506
496.636	8.04177
496.839	7.91206
497.043	9.31673
497.246	8.22344
497.45	7.71583
497.653	7.92459
497.856	8.28981
498.06	7.27361
498.263	7.80523
498.467	7.68635
498.67	8.88443
498.873	8.47952
499.077	7.80625
499.28	7.81653
499.483	8.26905
499.686	8.73823
499.89	8.41043
500.093	8.70944
500.296	7.41411
500.499	9.44341
500.703	8.09538
500.906	8.18312
501.109	9.85045
501.312	8.18789
501.515	8.08777
501.719	8.48037
501.922	9.3705
502.125	8.361
502.328	7.94291
502.531	7.10492
502.734	8.24504
502.937	6.46529
503.14	8.13057
503.343	7.13457
503.546	7.75235
503.749	7.31345
503.952	8.61798
504.155	7.19252
504.358	8.4575
504.561	7.97738
504.764	6.80792
504.967	8.06392
505.17	8.12529
505.373	9.36147
505.576	8.09189
505.778	8.68009
505.981	7.26353
506.184	9.16033
506.387	6.46699
506.59	9.48862
506.793	9.10108
506.995	8.49231
507.198	6.22523
507.401	8.13565
507.604	8.30949
507.806	7.03507
508.009	7.30544
508.212	8.32422
508.414	7.28161
508.617	7.39968
508.82	7.70116
509.022	8.98513
509.225	8.18514
509.427	6.48557
509.63	8.95295
509.833	7.73975
510.035	7.64612
510.238	6.51584
510.44	8.90928
510.643	6.02373
510.845	9.77702
511.048	8.27065
511.25	7.51977
511.453	7.75508
511.655	8.23179
511.858	7.46296
512.06	8.60079
512.262	7.65855
512.465	8.69089
512.667	7.42161
512.869	6.92513
513.072	8.14966
513.274	8.70001
513.476	8.26118
513.679	8.50382
513.881	6.96506
514.083	9.3953
514.286	7.19831
514.488	7.27701
514.69	7.02912
514.892	6.6872
515.094	8.4302
515.297	7.30516
515.499	7.94727
515.701	7.10505
515.903	9.40608
516.105	9.23345
516.307	8.48111
516.509	6.11652
516.711	6.63637
516.913	7.8534
517.116	7.65357
517.318	7.31381
517.52	8.61978
517.722	8.30312
517.924	6.5574
518.126	8.06431
518.328	6.95096
518.529	7.87232
518.731	8.98282
518.933	7.17431
519.135	7.56902
519.337	8.49201
519.539	8.00963
519.741	6.24347
519.943	7.56302
520.145	7.42101
520.346	8.14289
520.548	7.45592
520.75	8.10153
520.952	7.41636
521.153	7.85441
521.355	8.22949
521.557	6.82766
521.759	7.88411
521.96	7.74091
522.162	6.79312
522.364	8.61714
522.565	6.96943
522.767	8.41758
522.969	8.82086
523.17	8.13582
523.372	8.07342
523.573	7.25703
523.775	7.49895
523.977	6.68193
524.178	8.90489
524.38	6.98398
524.581	8.28861
524.783	7.31262
524.984	8.03364
525.186	7.50034
525.387	7.97062
525.589	7.43417
525.79	7.16697
525.991	6.88252
526.193	7.70963
526.394	6.49292
526.596	7.68739
526.797	7.44252
526.998	7.06372
527.2	6.50987
527.401	7.73487
527.602	7.89835
527.803	9.81465
528.005	9.98413
528.206	10.95886
528.407	11.53844
528.608	11.36303
528.81	11.5106
529.011	10.84915
529.212	11.80018
529.413	10.72404
529.614	10.01094
529.815	9.65296
530.017	8.85261
530.218	7.84384
530.419	7.48632
530.62	7.90169
530.821	7.94003
531.022	6.8229
531.223	8.09788
531.424	8.04626
531.625	7.92811
531.826	7.77539
532.027	7.70961
532.228	8.49026
532.429	7.70425
532.63	7.3733
532.831	7.83759
533.032	7.85885
533.233	8.44639
533.433	8.14959
533.634	8.3645
533.835	7.63776
534.036	7.21383
534.237	7.49017
534.438	7.38215
534.638	7.06805
534.839	7.31343
535.04	8.15781
535.241	7.42421
535.441	9.11845
535.642	7.96592
535.843	6.8976
536.043	6.97664
536.244	7.09822
536.445	7.09256
536.645	8.22127
536.846	7.63995
537.047	8.50734
537.247	7.05581
537.448	7.50164
537.648	7.62873
537.849	7.64465
538.049	7.65559
538.25	8.46944
538.451	8.13579
538.651	7.06156
538.851	8.23067
539.052	8.87993
539.252	8.72085
539.453	7.75225
539.653	7.92576
539.854	7.71602
540.054	7.60461
540.254	8.30981
540.455	8.28015
540.655	7.22688
540.855	8.03988
541.056	8.83825
541.256	8.44155
541.456	9.461
541.657	8.65434
541.857	9.44242
542.057	7.96216
542.257	7.69285
542.458	8.29031
542.658	8.36961
542.858	7.23672
543.058	8.69834
543.258	8.34936
543.458	7.08909
543.659	6.86734
543.859	8.50211
544.059	8.53756
544.259	7.78481
544.459	8.51367
544.659	7.48382
544.859	8.29604
545.059	7.56537
545.259	8.49146
545.459	8.20495
545.659	8.73063
545.859	7.89992
546.059	8.23453
546.259	7.20314
546.459	6.70266
546.659	7.09011
546.859	8.63928
547.059	8.41555
547.258	8.44118
547.458	8.39422
547.658	7.16464
547.858	7.24434
548.058	8.39049
548.258	7.95512
548.457	7.1825
548.657	10.78854
548.857	7.99478
549.057	9.0619
549.256	8.93495
549.456	8.14141
549.656	6.32294
549.855	10.33834
550.055	8.01772
550.255	10.65946
550.454	8.9301
550.654	9.61226
550.853	10.08223
551.053	9.63873
551.253	9.01781
551.452	8.88793
551.652	7.42152
551.851	6.88515
552.051	8.28757
552.25	7.96027
552.45	7.72982
552.649	8.2289
552.849	7.56474
553.048	8.48483
553.248	9.15819
553.447	7.48863
553.646	9.49673
553.846	10.16403
554.045	9.59207
554.244	7.32593
554.444	10.47816
554.643	7.9679
554.842	10.40325
555.042	11.18952
555.241	8.13471
555.44	7.76756
555.64	9.29893
555.839	11.18686
556.038	9.61538
556.237	8.14601
556.436	8.82556
556.636	9.55818
556.835	7.9771
557.034	10.99863
557.233	8.85785
557.432	7.56054
557.631	10.27791
557.83	8.59203
558.029	8.41781
558.228	8.55275
558.427	8.0594
558.626	9.44948
558.825	8.15846
559.024	9.209
559.223	11.28775
559.422	8.97358
559.621	9.70961
559.82	6.24406
560.019	9.10974
560.218	8.75543
560.417	6.09648
560.616	8.75186
560.815	13.35233
561.014	7.35326
561.212	10.79669
561.411	9.42355
561.61	7.37076
561.809	8.87341
562.008	11.03283
562.206	9.14141
562.405	9.84258
562.604	9.13035
562.803	9.36288
563.001	9.10449
563.2	7.55526
563.399	9.77106
563.597	7.93832
563.796	9.42375
563.995	7.85153
564.193	10.19366
564.392	8.79643
564.59	12.03834
564.789	6.98144
564.988	8.95613
565.186	9.42666
565.385	8.93599
565.583	8.69011
565.782	8.92874
565.98	8.65657
566.179	9.05035
566.377	7.86771
566.575	8.36129
566.774	10.59061
566.972	10.25061
567.171	11.55213
567.369	10.62393
567.567	9.28755
567.766	9.66443
567.964	7.08348
568.162	10.06335
568.361	10.62034
568.559	9.31861
568.757	9.87714
568.956	9.65412
569.154	9.40855
569.352	10.56971
569.55	9.35826
569.748	9.53125
569.947	8.40334
570.145	8.58543
570.343	8.26089
570.541	10.89735
570.739	8.03982
570.937	9.61607
571.135	9.91714
571.333	11.39341
571.532	11.17288
571.73	9.87826
571.928	10.79583
572.126	10.02116
572.324	9.02263
572.522	11.06494
572.72	12.75466
572.918	9.67325
573.116	10.00072
573.313	9.6949
573.511	9.59743
573.709	9.12798
573.907	10.4594
574.105	9.28491
574.303	7.71509
574.501	7.97406
574.699	10.11982
574.896	10.19315
575.094	10.41903
575.292	8.12037
575.49	10.79999
575.688	9.38151
575.885	11.47379
576.083	12.24471
576.281	10.36819
576.478	9.14243
576.676	10.43529
576.874	8.45176
577.071	9.67349
577.269	13.02965
577.467	10.09999
577.664	9.99302
577.862	11.35159
578.059	9.22313
578.257	11.37661
578.455	9.94893
578.652	10.26393
578.85	7.79572
579.047	10.34927
579.245	10.13423
579.442	10.38779
579.64	10.61764
579.837	7.80379
580.034	14.00984
580.232	9.70426
580.429	8.76432
580.627	11.04837
580.824	12.52413
581.021	11.08544
581.219	10.01174
581.416	9.40415
581.613	12.56123
581.811	12.33379
582.008	9.61657
582.205	12.06878
582.402	10.99858
582.6	13.64259
582.797	11.042
582.994	11.45273
583.191	11.92989
583.388	10.75828
583.586	12.13907
583.783	12.2935
583.98	9.61232
584.177	11.31682
584.374	6.80365
584.571	10.66285
584.768	10.69479
584.965	10.50077
585.162	11.99598
585.359	13.71337
585.556	10.81786
585.753	11.28237
585.95	9.08241
586.147	9.69804
586.344	11.69524
586.541	10.3222
586.738	9.18381
586.935	10.71201
587.132	9.82883
587.329	12.6447
587.526	10.66696
587.722	18.33369
587.919	8.90105
588.116	11.76485
588.313	13.26874
588.51	14.32942
588.706	10.81931
588.903	11.68977
589.1	12.68808
589.297	15.00864
589.493	11.05723
589.69	12.00286
589.887	10.13557
590.083	9.49483
590.28	9.81583
590.477	12.61151
590.673	12.09244
590.87	13.20666
591.067	10.59792
591.263	11.99425
591.46	11.72548
591.656	10.88492
591.853	13.30626
592.049	9.81516
592.246	10.4045
592.442	13.21556
592.639	12.30508
592.835	9.16777
593.032	12.08813
593.228	9.15157
593.425	9.14076
593.621	8.85257
593.817	11.53654
594.014	10.11408
594.21	11.4816
594.406	12.43557
594.603	12.23557
594.799	10.3787
594.995	7.56767
595.192	12.73942
595.388	10.49521
595.584	10.5637
595.78	8.79865
595.977	14.14463
596.173	13.49483
596.369	10.73974
596.565	9.69794
596.761	8.84314
596.957	12.69383
597.154	9.78903
597.35	10.18316
597.546	9.74961
597.742	11.44478
597.938	11.41983
598.134	9.67874
598.33	11.19111
598.526	13.72808
598.722	11.96759
598.918	14.29175
599.114	12.40657
599.31	10.10289
599.506	11.78292
599.702	10.25325
599.898	12.02542
600.094	13.07977
600.29	12.84296
600.485	13.27654
600.681	10.8423
600.877	14.46112
601.073	11.91906
601.269	14.74139
601.465	14.02056
601.66	10.22438
601.856	8.7428
602.052	14.1304
602.248	11.13453
602.443	8.38279
602.639	9.66382
602.835	9.82056
603.03	10.02552
603.226	12.55352
603.422	9.68031
603.617	10.91842
603.813	10.63772
604.009	10.20846
604.204	12.65509
604.4	8.71248
604.595	12.30105
604.791	9.60815
604.986	11.39018
605.182	9.98192
605.377	10.53648
605.573	10.34955
605.768	11.09597
605.964	12.19516
606.159	12.31691
606.355	13.65079
606.55	11.00722
606.746	13.50598
606.941	11.54301
607.136	15.07023
607.332	16.8305
607.527	9.94781
607.722	11.99438
607.918	11.47249
608.113	10.44452
608.308	12.87999
608.503	12.45068
608.699	12.18972
608.894	12.44013
609.089	10.04556
609.284	11.87388
609.479	10.71555
609.675	12.48256
609.87	10.87215
610.065	12.67764
610.26	13.21719
610.455	12.85888
610.65	11.25794
610.845	11.81495
611.04	13.57532
611.235	11.65874
611.43	11.79094
611.625	9.85192
611.82	14.64392
612.015	10.56489
612.21	15.03901
612.405	9.29161
612.6	15.78338
612.795	14.48643
612.99	13.6183
613.185	10.11084
613.38	10.95804
613.575	12.98943
613.77	17.62746
613.965	9.49072
614.159	10.85328
614.354	15.00771
614.549	14.256
614.744	14.1183
614.938	10.67164
615.133	10.08599
615.328	14.94508
615.523	14.90171
615.717	18.69393
615.912	11.41472
616.107	12.91114
616.301	11.90729
616.496	11.83959
616.691	16.2736
616.885	13.94306
617.08	18.2135
617.274	15.22529
617.469	17.29429
617.664	14.30252
617.858	11.54279
618.053	13.42616
618.247	12.20163
618.442	8.80723
618.636	15.63407
618.831	11.75213
619.025	11.77785
619.219	18.08127
619.414	6.32571
619.608	13.15626
619.803	11.46709
619.997	17.47241
620.191	15.70051
620.386	14.25123
620.58	13.61289
620.774	9.43704
620.969	9.83549
621.163	13.71808
621.357	10.40979
621.551	12.3023
621.746	13.47832
621.94	12.76831
622.134	20.7109
622.328	17.55375
622.522	10.13892
622.716	15.58078
622.911	15.22588
623.105	15.43281
623.299	14.39442
623.493	20.32705
623.687	11.52629
623.881	12.17545
624.075	14.51071
624.269	15.92885
624.463	9.42608
624.657	9.96338
624.851	14.30951
625.045	15.14703
625.239	15.13856
625.433	12.23416
625.627	16.19214
625.821	12.08574
626.015	11.49332
626.209	13.27689
626.403	10.2088
626.596	13.59445
626.79	14.40515
626.984	10.00568
627.178	13.73362
627.372	13.8847
627.565	14.45505
627.759	9.80716
627.953	10.31961
628.147	14.07773
628.34	14.49052
628.534	17.70411
628.728	12.7842
628.921	15.34603
629.115	14.54419
629.309	15.37975
629.502	15.7568
629.696	13.85499
629.89	12.93271
630.083	13.89595
630.277	14.81314
630.47	17.75834
630.664	13.11817
630.857	10.64629
631.051	15.52393
631.244	16.16126
631.438	15.92392
631.631	12.38821
631.825	16.61214
632.018	15.91679
632.212	18.46357
632.405	16.99646
632.598	12.13678
632.792	14.336
632.985	8.37061
633.178	13.33223
633.372	14.01679
633.565	13.76719
633.758	17.11277
633.952	12.07515
634.145	11.80061
634.338	13.81243
634.531	12.43307
634.724	12.56818
634.918	14.01332
635.111	13.62077
635.304	12.97975
635.497	19.11262
635.69	14.5641
635.883	17.1805
636.077	11.66433
636.27	15.6565
636.463	14.71109
636.656	15.51487
636.849	13.25206
637.042	15.22301
637.235	18.17688
637.428	16.38709
637.621	15.64404
637.814	18.49915
638.007	18.55005
638.2	18.45595
638.393	20.06191
638.586	11.80219
638.778	13.55727
638.971	14.95829
639.164	20.0936
639.357	16.24958
639.55	18.91568
639.743	17.84308
639.935	17.40372
640.128	20.08533
640.321	17.27649
640.514	15.82869
640.707	22.30511
640.899	17.15787
641.092	11.26467
641.285	35.80256
641.477	9.80032
641.67	21.96085
641.863	19.06758
642.055	16.52251
642.248	15.87244
642.441	14.54207
642.633	17.16419
642.826	18.98006
643.018	19.88849
643.211	21.66109
643.403	20.52402
643.596	22.47243
643.788	22.88302
643.981	15.00366
644.173	18.56101
644.366	15.58711
644.558	11.57615
644.751	18.57088
644.943	12.26229
645.135	21.56447
645.328	21.643
645.52	18.88
645.712	19.21632
645.905	26.09355
646.097	13.08193
646.289	17.24093
646.482	22.53296
646.674	14.88695
646.866	20.20701
647.058	18.86285
647.251	13.18336
647.443	15.28536
647.635	16.28364
647.827	13.45271
648.019	13.81652
648.211	16.67546
648.404	17.3957
648.596	21.27154
648.788	17.50912
648.98	17.71703
649.172	18.10072
649.364	18.17628
649.556	11.30984
649.748	25.18546
649.94	13.89774
650.132	18.7297
650.324	14.32738
650.516	14.63785
650.708	20.09746
650.9	12.32468
651.092	15.50624
651.284	12.25711
651.476	13.64889
651.667	18.74677
651.859	20.95135
652.051	17.08891
652.243	16.9637
652.435	15.51267
652.627	18.35988
652.818	18.65232
653.01	11.97571
653.202	14.57167
653.394	15.78042
653.585	18.98827
653.777	32.0853
653.969	21.40222
654.16	21.27297
654.352	14.06627
654.544	17.51504
654.735	20.67475
654.927	17.71522
655.118	22.85483
655.31	20.66466
655.502	20.5845
655.693	16.20259
655.885	19.97854
656.076	22.93047
656.268	18.02124
656.459	22.06279
656.651	21.99912
656.842	16.388
657.034	14.93315
657.225	20.01393
657.416	22.52252
657.608	22.22548
657.799	17.24827
657.99	20.82225
658.182	14.97009
658.373	15.21006
658.564	18.98647
658.756	17.12829
658.947	16.52532
659.138	13.65886
659.33	14.7808
659.521	13.94818
659.712	15.92863
659.903	15.58171
660.094	14.42204
660.286	12.15344
660.477	22.79143
660.668	18.86265
660.859	16.80901
661.05	12.73757
661.241	19.53617
661.432	19.48776
661.623	16.83315
661.814	16.61287
662.006	12.32853
662.197	19.65267
662.388	21.83384
662.579	19.34159
662.77	23.70655
662.96	27.9719
663.151	21.2412
663.342	12.72476
663.533	20.88386
663.724	18.09672
663.915	25.1729
664.106	18.56229
664.297	25.94436
664.488	22.0651
664.678	17.37543
664.869	21.53302
665.06	23.4016
665.251	20.77329
665.442	21.30707
665.632	15.88443
665.823	26.60544
666.014	8.98888
666.204	21.7667
666.395	25.19053
666.586	30.50496
666.776	23.50254
666.967	26.52537
667.158	20.46013
667.348	25.72753
667.539	15.59847
667.729	23.24591
667.92	17.17009
668.111	23.56478
668.301	22.30444
668.492	18.75354
668.682	19.4459
668.873	18.49864
669.063	15.32192
669.253	20.42361
669.444	22.29282
669.634	19.03701
669.825	27.09503
670.015	24.11757
670.206	17.00617
670.396	27.73774
670.586	19.11143
670.777	21.95455
670.967	11.9795
671.157	19.76683
671.347	18.22405
671.538	26.93665
671.728	21.73867
671.918	28.28885
672.108	25.64037
672.299	20.62867
672.489	22.88298
672.679	17.78974
672.869	23.86246
673.059	28.08212
673.249	22.24833
673.44	17.29611
673.63	20.1631
673.82	25.11574
674.01	17.85302
674.2	23.18542
674.39	33.85445
674.58	23.77049
674.77	22.43553
674.96	20.56706
675.15	39.65258
675.34	26.44948
675.53	21.53149
675.72	20.18472
675.91	16.05874
676.099	29.19754
676.289	30.57106
676.479	26.2335
676.669	20.2852
676.859	23.59337
677.049	17.17422
677.238	22.17434
677.428	29.52567
677.618	22.29211
677.808	25.49124
677.997	23.69492
678.187	16.13417
678.377	21.24946
678.567	19.27568
678.756	18.92737
678.946	20.26188
679.136	14.89595
679.325	17.29709
679.515	16.5682
679.704	15.17922
679.894	22.08234
680.084	20.91976
680.273	24.68043
680.463	16.66777
680.652	16.65383
680.842	19.51315
681.031	23.96032
681.221	16.92453
681.41	22.75696
681.6	19.68395
681.789	23.76136
681.978	26.30631
682.168	21.98557
682.357	22.70449
682.547	23.88999
682.736	22.05741
682.925	27.0434
683.115	26.49159
683.304	25.95245
683.493	24.00772
683.682	25.088
683.872	23.36349
684.061	28.35016
684.25	25.62556
684.439	31.5271
684.629	25.61639
684.818	39.25744
685.007	22.94891
685.196	22.35332
685.385	30.76012
685.574	25.40217
685.763	25.86857
685.952	24.06473
686.142	18.02737
686.331	30.75279
686.52	15.66558
686.709	31.26991
686.898	30.89102
687.087	26.86649
687.276	31.78104
687.465	28.51168
687.654	22.57711
687.842	32.32441
688.031	17.82572
688.22	29.20389
688.409	24.82644
688.598	25.43013
688.787	37.06522
688.976	24.8135
689.165	32.668
689.353	22.71158
689.542	27.13442
689.731	28.3062
689.92	34.48262
690.108	29.79748
690.297	22.35985
690.486	25.41953
690.675	29.37613
690.863	34.72956
691.052	34.17991
691.241	28.22958
691.429	26.96566
691.618	33.66001
691.806	19.74501
691.995	25.17963
692.184	26.05252
692.372	23.67388
692.561	26.77024
692.749	26.75944
692.938	39.36625
693.126	30.31101
693.315	24.68156
693.503	30.00378
693.692	30.78615
693.88	33.56774
694.068	39.55524
694.257	26.71186
694.445	29.49753
694.634	16.65995
694.822	34.46526
695.01	33.6647
695.199	34.9975
695.387	36.86163
695.575	34.52417
695.763	27.92925
695.952	26.19655
696.14	19.53797
696.328	23.87147
696.516	28.27345
696.705	27.53173
696.893	27.87407
697.081	17.58066
697.269	29.65413
697.457	20.98582
697.645	19.37394
697.833	29.44566
698.021	20.63136
698.21	21.65064
698.398	23.47739
698.586	18.39545
698.774	17.56953
698.962	22.10979
699.15	18.6376
699.338	16.20475
699.526	25.32827
699.714	20.07162
699.901	21.84366
700.089	29.15554
700.277	21.23961
700.465	23.36631
700.653	29.56896
700.841	28.38455
701.029	21.43531
701.217	32.62132
701.404	28.03054
701.592	35.89011
701.78	38.08095
701.968	25.27401
702.155	26.67969
702.343	21.59222
702.531	36.56393
702.718	30.69686
702.906	27.41467
703.094	26.14708
703.281	36.50919
703.469	28.61873
703.657	36.3566
703.844	50.41613
704.032	40.20627
704.219	26.00868
704.407	32.9986
704.595	38.77097
704.782	31.91643
704.97	27.14468
705.157	27.63892
705.345	40.75352
705.532	47.53675
705.719	32.29598
705.907	40.75879
706.094	31.5632
706.282	42.37
706.469	29.40666
706.656	32.95535
706.844	30.21268
707.031	37.41576
707.218	32.60276
707.406	42.25386
707.593	35.80866
707.78	35.99421
707.968	30.99508
708.155	25.84211
708.342	36.31464
708.529	34.69469
708.716	32.36825
708.904	43.90873
709.091	36.47209
709.278	24.42651
709.465	45.4068
709.652	44.89975
709.839	42.40969
710.026	34.26998
710.213	20.88361
710.4	36.00504
710.587	38.45763
710.774	39.0598
710.961	40.34024
711.148	32.42037
711.335	40.32548
711.522	31.89314
711.709	34.56602
711.896	48.27086
712.083	40.91768
712.27	27.65182
712.457	34.95514
712.644	23.26481
712.831	47.82204
713.017	34.74442
713.204	38.88402
713.391	30.24583
713.578	42.76489
713.765	42.70144
713.951	38.48552
714.138	57.06338
714.325	39.386
714.512	35.03192
714.698	28.92783
714.885	46.70189
715.072	37.0694
715.258	35.58261
715.445	30.28664
715.631	44.85878
715.818	18.0083
716.005	29.59087
716.191	39.38864
716.378	32.32593
716.564	42.07761
716.751	28.8256
716.937	30.94418
717.124	44.14554
717.31	30.74311
717.497	48.24147
717.683	30.47709
717.869	56.21786
718.056	32.79578
718.242	40.36786
718.429	36.91912
718.615	29.12988
718.801	38.43559
718.988	45.3491
719.174	41.54257
719.36	36.97823
719.547	49.5971
719.733	40.30057
719.919	41.99472
720.105	44.12716
720.291	38.25499
720.478	41.76775
720.664	37.91015
720.85	36.3193
721.036	64.51045
721.222	52.20851
721.408	38.78442
721.595	58.25679
721.781	55.14201
721.967	50.03851
722.153	55.63325
722.339	45.96486
722.525	45.37424
722.711	32.3773
722.897	30.17484
723.083	38.33676
723.269	51.83045
723.455	62.70119
723.641	68.02588
723.827	43.80082
724.012	45.74713
724.198	38.56963
724.384	53.03661
724.57	45.95424
724.756	29.32722
724.942	25.75687
725.127	51.19898
725.313	54.23222
725.499	55.77632
725.685	59.50911
725.87	46.54027
726.056	34.96693
726.242	54.9584
726.428	29.33612
726.613	50.23462
726.799	40.29149
726.985	33.35429
727.17	28.36728
727.356	55.90177
727.541	34.00043
727.727	38.56185
727.913	48.88484
728.098	36.2162
728.284	49.77238
728.469	29.93099
728.655	34.45865
728.84	48.3674
729.026	49.5434
729.211	50.45978
729.397	45.68528
729.582	48.81732
729.767	41.1305
729.953	45.49411
730.138	51.97321
730.323	22.46055
730.509	32.61071
730.694	57.91406
730.879	46.05758
731.065	43.97039
731.25	65.07674
731.435	49.01746
731.621	29.13545
731.806	36.79839
731.991	44.73146
732.176	31.18627
732.361	55.4325
732.547	43.9347
732.732	28.19619
732.917	65.99936
733.102	32.50755
733.287	35.99005
733.472	42.30194
733.657	43.63648
733.842	29.24148
734.027	38.52042
734.212	41.93406
734.397	35.80934
734.582	43.37351
734.767	51.91299
734.952	58.16518
735.137	20.09963
735.322	58.68232
735.507	48.4381
735.692	47.49684
735.877	69.39161
736.062	62.1913
736.247	48.12569
736.431	46.10395
736.616	58.85059
736.801	47.46043
736.986	45.36
737.171	38.38981
737.355	35.01624
737.54	58.98133
737.725	45.20621
737.909	76.32976
738.094	40.84778
738.279	56.36099
738.463	43.71121
738.648	53.7547
738.833	50.3284
739.017	66.8384
739.202	43.44246
739.386	46.7538
739.571	30.19306
739.756	53.5675
739.94	46.73631
740.125	57.12269
740.309	37.99289
740.494	55.38783
740.678	46.8601
740.863	52.70836
741.047	49.00776
741.231	61.16651
741.416	37.73661
741.6	66.07824
741.785	40.70092
741.969	58.68718
742.153	61.96767
742.338	26.30595
742.522	48.13767
742.706	58.11219
742.89	34.07079
743.075	49.62678
743.259	67.61983
743.443	60.68558
743.627	64.41932
743.812	78.4118
743.996	31.90711
744.18	46.53229
744.364	43.74979
744.548	83.29149
744.732	47.19484
744.916	60.73867
745.1	56.04987
745.285	48.3887
745.469	57.84232
745.653	75.36211
745.837	33.17283
746.021	86.25158
746.205	66.79704
746.389	52.21265
746.573	46.87336
746.757	71.41827
746.94	45.44006
747.124	65.35269
747.308	38.05573
747.492	69.49741
747.676	43.74441
747.86	82.21699
748.044	44.22171
748.227	29.9885
748.411	100.30707
748.595	55.81993
748.779	40.0913
748.963	56.54235
749.146	53.21264
749.33	41.127
749.514	38.43275
749.697	66.14864
749.881	42.94744
750.065	40.9365
750.248	52.95025
750.432	84.44682
750.616	51.32605
750.799	36.9798
750.983	78.8715
751.166	90.76483
751.35	35.30401
751.533	65.09299
751.717	68.84292
751.9	72.86768
752.084	46.21004
752.267	40.24924
752.451	41.1312
752.634	53.84377
752.818	62.95575
753.001	63.64891
753.184	66.73516
753.368	58.0447
753.551	14.24067
753.734	42.80918
753.918	80.27696
754.101	43.48848
754.284	63.43185
754.467	46.2204
754.651	43.73069
754.834	42.44483
755.017	69.39266
755.2	66.00678
755.384	37.32719
755.567	63.02233
755.75	71.1848
755.933	51.00107
756.116	55.14658
756.299	48.95365
756.482	42.49154
756.665	61.77282
756.848	54.52005
757.032	61.31987
757.215	35.73008
757.398	43.38454
757.581	44.7889
757.764	93.43014
757.947	50.96199
758.129	73.5634
758.312	19.06934
758.495	53.59682
758.678	52.27557
758.861	49.0687
759.044	82.0523
759.227	44.05063
759.41	43.63481
759.592	63.00268
759.775	52.3462
759.958	68.3425
760.141	37.72838
760.324	88.83966
760.506	74.96821
760.689	68.86534
760.872	91.47976
761.054	63.84362
761.237	49.34455
761.42	61.13662
761.602	68.1977
761.785	59.34334
761.968	70.65242
762.15	83.70727
762.333	51.33556
762.515	61.62949
762.698	46.32383
762.88	62.48771
763.063	55.7723
763.245	60.61353
763.428	37.94042
763.61	42.64763
763.793	31.87627
763.975	49.46543
764.158	42.84393
764.34	41.05764
764.522	35.89624
764.705	44.82397
764.887	62.27169
765.069	29.47435
765.252	59.05031
765.434	61.02194
765.616	50.49792
765.799	43.16937
765.981	63.92334
766.163	41.87431
766.345	68.19313
766.528	47.72937
766.71	24.09648
766.892	57.19348
767.074	72.82185
767.256	51.28923
767.438	85.36025
767.62	61.44538
767.802	91.4936
767.985	68.18674
768.167	91.64713
768.349	46.60669
768.531	66.65878
768.713	61.21328
768.895	71.17114
769.077	65.41469
769.259	100.59647
769.441	147.87745
769.623	75.58985
769.804	89.95915
769.986	86.28992
770.168	105.80812
770.35	124.34176
770.532	89.72401
770.714	100.19155
770.896	109.13215
771.077	47.47575
771.259	105.5707
771.441	85.79286
771.623	115.54764
771.804	138.35814
771.986	43.85165
772.168	69.56741
772.35	108.64205
772.531	149.77682
772.713	86.70708
772.894	116.46137
773.076	81.87908
773.258	73.72055
773.439	112.29873
773.621	127.09845
773.802	56.30297
773.984	69.76147
774.166	91.88004
774.347	121.15164
774.529	112.33694
774.71	41.33874
774.891	77.9479
775.073	74.55408
775.254	124.17471
775.436	67.79597
775.617	139.50537
775.799	70.84457
775.98	125.1436
776.161	133.85212
776.343	133.30863
776.524	83.34925
776.705	74.6537
776.886	45.60014
777.068	92.43005
777.249	163.67752
777.43	147.91769
777.611	57.34197
777.793	79.42118
777.974	126.88661
778.155	73.80304
778.336	64.5978
778.517	148.92509
778.698	67.91541
778.879	41.50409
779.061	25.64084
779.242	95.93555
779.423	97.51649
779.604	72.692
779.785	79.52097
779.966	89.65143
780.147	112.99631
780.328	119.85363
780.509	164.43004
780.69	108.33297
780.871	65.24191
781.051	51.84758
781.232	91.77595
781.413	86.47287
781.594	78.5911
781.775	74.60679
781.956	70.23352
782.137	38.27041
782.317	66.77622
782.498	97.01964
782.679	88.19605
782.86	92.39403
783.04	70.78942
783.221	100.14601
783.402	148.15568
783.583	90.10442
783.763	110.87951
783.944	74.41622
784.124	50.49131
784.305	140.30647
784.486	101.92599
784.666	82.29698
784.847	50.72204
785.027	165.37919
785.208	70.28042
785.388	70.9048
785.569	73.92911
785.749	82.27147
785.93	74.10415
786.11	49.85067
786.291	98.87982
786.471	91.11934
786.652	110.51668
786.832	83.00829
787.012	96.0734
787.193	58.15632
787.373	91.01826
787.553	77.34993
787.734	93.21388
787.914	75.8593
788.094	102.02162
788.275	97.27644
788.455	77.15428
788.635	50.73492
788.815	87.77331
788.995	58.23259
789.176	50.53999
789.356	63.18849
789.536	77.61874
789.716	100.29263
789.896	64.76172
790.076	72.80663
790.256	90.15684
790.436	30.21316
790.616	65.09085
790.796	93.44103
790.976	76.41117
791.156	66.96629
791.336	107.48292
791.516	96.73271
791.696	76.16012
791.876	49.42131
792.056	88.151
792.236	111.98904
792.416	107.69197
792.596	98.80014
792.776	96.94099
792.956	99.45543
793.135	132.11401
793.315	61.09825
793.495	124.67049
793.675	99.67147
793.854	111.56395
794.034	110.15215
794.214	58.51991
794.394	110.65477
794.573	122.60751
794.753	90.51381
794.933	65.32463
795.112	92.55071
795.292	111.63784
795.472	140.69445
795.651	56.31147
795.831	82.22165
796.01	80.97326
796.19	80.09945
796.369	81.11787
796.549	101.71307
796.728	79.69914
796.908	50.19224
797.087	58.21452
797.267	74.68683
797.446	54.8943
797.626	101.71674
797.805	100.22126
797.984	63.43924
798.164	101.2341
798.343	62.55078
798.522	92.16038
798.702	85.37816
798.881	55.55501
799.06	78.97844
799.239	38.55972
799.419	62.52646
799.598	129.99335
799.777	98.33161
799.956	120.51844
800.136	73.10685
800.315	64.22972
800.494	98.29189
800.673	117.65117
800.852	104.07832
801.031	111.82619
801.21	103.21732
801.389	72.36479
801.568	89.11692
801.747	143.53346
801.926	87.84818
802.105	139.36776
802.284	76.44099
802.463	130.65954
802.642	91.02688
802.821	94.97358
803	127.84413
803.179	113.14871
803.358	124.77509
803.537	67.69716
803.716	88.49307
803.895	70.12682
804.073	82.00339
804.252	69.90361
804.431	102.24067
804.61	82.5185
804.789	125.70055
804.967	75.55455
805.146	70.55147
805.325	149.32917
805.503	98.56428
805.682	51.68576
805.861	167.58581
806.039	125.49674
806.218	72.55934
806.397	91.84005
806.575	86.49498
806.754	98.30602
806.932	61.14286
807.111	138.18126
807.289	116.49774
807.468	88.83986
807.646	119.08939
807.825	103.70237
808.003	93.10953
808.182	114.54312
808.36	94.91659
808.539	65.30464
808.717	140.29173
808.895	66.26548
809.074	98.24537
809.252	91.85224
809.43	110.98738
809.609	124.90697
809.787	152.43524
809.965	84.88917
810.144	96.86911
810.322	87.6547
810.5	106.96108
810.678	82.37593
810.856	169.38037
811.035	125.59544
811.213	116.00238
811.391	136.41653
811.569	96.71517
811.747	200.27959
811.925	131.4501
812.103	69.07183
812.281	81.79642
812.459	151.62035
812.637	151.73037
812.816	129.00733
812.994	155.97227
813.171	131.88188
813.349	108.88711
813.527	135.0284
813.705	146.94958
813.883	177.24455
814.061	130.9555
814.239	159.93366
814.417	181.50539
814.595	105.45739
814.773	109.06316
814.95	102.16522
815.128	114.06668
815.306	78.63853
815.484	93.99696
815.662	71.76383
815.839	68.65091
816.017	73.23175
816.195	146.68855
816.372	87.85862
816.55	125.45647
816.728	147.23387
816.905	89.02139
817.083	158.0748
817.261	94.45471
817.438	172.121
817.616	167.18914
817.793	81.21429
817.971	120.18711
818.148	129.07235
818.326	144.18046
818.503	110.75563
818.681	144.00068
818.858	83.75289
819.036	96.23556
819.213	105.40976
819.391	77.62667
819.568	73.3979
819.745	66.81613
819.923	117.87782
820.1	81.05433
820.277	68.88935
820.455	80.7953
820.632	81.27273
820.809	82.45999
820.986	56.77196
821.164	45.50117
821.341	39.67914
821.518	52.61566
821.695	38.0242
821.872	36.28213
822.05	30.82533
822.227	23.53405
822.404	24.74732
822.581	27.09382
822.758	23.59705
822.935	23.17214
823.112	26.92346
823.289	21.44811
823.466	26.62043
823.643	24.40108
823.82	29.45662
823.997	26.95907
824.174	32.58543
824.351	42.35743
824.528	41.14745
824.705	38.50714
824.882	43.1441
825.059	57.22729
825.236	39.60304
825.412	44.06126
825.589	53.62122
825.766	75.12476
825.943	48.63698
826.12	57.09108
826.296	38.17189
826.473	49.85189
826.65	50.35576
826.827	61.79804
827.003	40.3161
827.18	44.64339
827.357	50.2083
827.533	43.85121
827.71	24.38392
827.887	36.95282
828.063	42.7581
828.24	37.57401
828.416	50.28694
828.593	39.70392
828.769	58.6214
828.946	65.77921
829.122	68.92603
829.299	63.32673
829.475	40.33885
829.652	69.22871
829.828	111.70863
830.005	71.36285
830.181	104.03362
830.357	73.46667
830.534	109.42772
830.71	79.42781
830.886	103.87586
831.063	100.48008
831.239	132.60676
831.415	61.80659
831.592	134.96951
831.768	88.11539
831.944	71.02605
832.12	137.02598
832.296	127.15049
832.473	110.96251
832.649	79.98095
832.825	105.36073
833.001	62.33843
833.177	95.43129
833.353	83.86694
833.529	47.82058
833.705	64.71685
833.881	48.19689
834.058	47.82711
834.234	49.16989
834.41	48.84227
834.586	38.61384
834.761	47.77494
834.937	51.89176
835.113	53.74903
835.289	49.08928
835.465	57.52961
835.641	49.31389
835.817	58.60951
835.993	104.38383
836.169	54.02831
836.344	80.45438
836.52	94.93888
836.696	91.24825
836.872	70.23658
837.048	186.87627
837.223	74.87775
837.399	163.39343
837.575	126.38387
837.75	117.72118
837.926	160.94154
838.102	270.20882
838.277	203.41196
838.453	268.70031
838.628	243.82284
838.804	113.0249
838.98	244.10227
839.155	122.41429
839.331	160.75437
839.506	123.60037
839.682	115.66298
839.857	147.13295
840.033	175.45588
840.208	84.20456
840.384	46.49752
840.559	87.41309
840.734	133.9119
840.91	196.67153
841.085	120.1357
841.26	111.70133
841.436	100.37695
841.611	100.27868
841.786	148.18712
841.962	202.64072
842.137	120.98231
842.312	75.68013
842.487	107.81375
842.663	86.90526
842.838	116.12177
843.013	394.87268
843.188	190.29225
843.363	143.73197
843.538	357.10354
843.714	343.16018
843.889	346.58299
844.064	368.13012
844.239	310.82777
844.414	394.14963
844.589	248.31569
844.764	500.08238
844.939	424.59214
845.114	534.04731
845.289	547.66426
845.464	544.71893
845.639	424.90495
845.814	202.62008
845.989	258.7752
846.163	276.57598
846.338	329.05065
846.513	490.62014
846.688	306.07212
846.863	275.20405
847.038	253.73573
847.212	314.46388
847.387	314.72966
847.562	323.26357
847.737	413.75303
847.911	147.30825
848.086	178.93263
848.261	609.62308
848.435	265.43952
848.61	452.3159
848.785	191.82357
848.959	441.33136
849.134	619.81089
849.308	731.93093
849.483	339.31807
849.658	529.98187
849.832	252.66305
850.007	212.96015
850.181	979.93776
850.356	241.95387
850.53	756.3378
850.705	203.43068
850.879	131.83302
851.053	277.05545
851.228	267.2148
851.402	397.51842
851.577	468.81874
851.751	696.05205
851.925	315.23344
852.099	158.85509
852.274	207.83343
852.448	287.83387
852.622	456.33388
852.797	306.597
852.971	315.7195
853.145	307.71395
853.319	1067.32612
853.493	476.30381
853.668	238.95654
853.842	731.96328
854.016	508.42622
854.19	654.91218
854.364	332.10602
854.538	365.48643
854.712	565.02475
854.886	294.69789
855.06	260.90997
855.234	101.81051
855.408	621.07369
855.582	587.26104
855.756	512.92894
855.93	665.3384
856.104	349.22249
856.278	496.3086
856.452	320.26411
856.626	412.48725
856.8	950.98089
856.973	406.96792
857.147	387.89121
857.321	434.62018
857.495	546.7173
857.669	366.12712
857.842	260.70507
858.016	518.10633
858.19	220.28936
858.364	1315.63839
858.537	279.40877
858.711	322.06596
858.885	278.68602
859.058	245.37053
859.232	127.27166
859.405	155.07406
859.579	472.78193
859.753	412.77236
859.926	257.82991
860.1	142.0227
860.273	327.59344
860.447	572.40619
860.62	312.89694
860.794	716.25234
860.967	341.96639
861.141	637.69235
861.314	1039.2257
861.487	459.93066
861.661	632.92998
861.834	665.55955
862.008	493.58563
862.181	374.80771
862.354	357.99726
862.528	406.58765
862.701	301.48042
862.874	181.64992
863.047	279.2902
863.221	300.89615
863.394	139.2359
863.567	575.76066
863.74	119.61678
863.913	464.46058
864.087	448.63622
864.26	559.62853
864.433	282.91544
864.606	890.2928
864.779	292.60625
864.952	147.74932
865.125	261.0123
865.298	297.97101
865.471	301.9004
865.644	794.66979
865.817	530.52954
865.99	527.61176
866.163	728.48242
866.336	294.91349
866.509	282.48608
866.682	275.51937
866.855	594.65465
867.028	180.86977
867.2	431.93768
867.373	104.32189
867.546	330.5179
867.719	801.80748
867.892	448.10877
868.064	262.07527
868.237	375.68104
868.41	392.06388
868.583	188.00528
868.755	210.46136
868.928	292.56727
869.101	899.70441
869.273	535.99714
869.446	411.0129
869.619	640.68571
869.791	329.81981
869.964	520.56397
870.136	513.8415
870.309	412.791
870.481	328.04801
870.654	172.61728
870.826	430.6291
870.999	261.22608
871.171	411.68318
871.344	252.31797
871.516	318.37809
871.689	208.20895
871.861	421.49537
872.033	218.35644
872.206	273.60951
872.378	471.16306
872.55	277.42227
872.723	182.96082
872.895	314.8511
873.067	512.44396
873.24	516.74002
873.412	268.55705
873.584	294.14439
873.756	283.98297
873.928	335.64734
874.101	358.71374
874.273	415.39015
874.445	131.77308
874.617	180.62443
874.789	317.52889
874.961	274.9496
875.133	398.15497
875.305	327.67932
875.477	206.09036
875.649	159.31884
875.821	187.67421
875.993	602.29619
876.165	192.35303
876.337	345.9057
876.509	303.60644
876.681	326.87523
876.853	359.81909
877.025	373.10964
877.197	211.2011
877.369	195.06996
877.541	454.77765
877.712	117.26825
877.884	192.7308
878.056	378.06717
878.228	195.09139
878.4	395.75803
878.571	204.36782
878.743	130.89839
878.915	319.95368
879.086	195.38899
879.258	226.59826
879.43	201.62222
879.601	181.13537
879.773	193.90147
879.945	47.82405
880.116	74.91814
880.288	48.08985
880.459	50.87111
880.631	38.87791
880.802	46.11012
880.974	43.24066
881.145	29.61631
881.317	39.30966
881.488	28.92926
881.66	32.29598
881.831	28.46678
882.002	37.93095
882.174	27.48945
882.345	35.58452
882.517	18.95664
882.688	43.44931
882.859	33.04049
883.03	54.45543
883.202	53.62783
883.373	44.06769
883.544	43.5075
883.715	75.72137
883.887	67.75868
884.058	57.11082
884.229	83.97487
884.4	82.45595
884.571	101.86961
884.742	81.84226
884.914	89.74737
885.085	140.03921
885.256	188.76241
885.427	156.24769
885.598	166.83571
885.769	184.47313
885.94	185.47945
886.111	120.03656
886.282	229.57344
886.453	167.42149
886.624	124.98812
886.795	232.70947
886.966	181.92914
887.136	251.82994
887.307	188.35609
887.478	384.01091
887.649	309.27927
887.82	330.26141
887.991	249.97281
888.161	327.42825
888.332	305.41486
888.503	138.29809
888.674	499.8644
888.844	593.57263
889.015	387.10306
889.186	168.44693
889.356	548.0068
889.527	153.20843
889.698	1065.8757
889.868	259.44653
890.039	356.93469
890.209	290.88393
890.38	386.7385
890.551	335.8592
890.721	463.25481
890.892	452.62216
891.062	274.00985
891.233	324.53015
891.403	306.75002
891.574	208.12628
891.744	301.16041
891.914	351.01041
892.085	308.30923
892.255	97.58853
892.425	605.62607
892.596	377.77308
892.766	397.40303
892.936	472.38054
893.107	396.57026
893.277	201.70231
893.447	166.10254
893.618	121.01756
893.788	260.92556
893.958	134.15121
894.128	131.81445
894.298	152.05423
894.468	190.82881
894.639	97.87785
894.809	61.0401
894.979	97.21281
895.149	117.10981
895.319	87.66043
895.489	131.03484
895.659	162.81141
895.829	103.15377
895.999	110.64285
896.169	80.92942
896.339	103.58055
896.509	222.23767
896.679	239.81071
896.849	237.37066
897.019	351.81458
897.189	270.14262
897.358	245.40407
897.528	353.4441
897.698	134.96342
897.868	317.4758
898.038	918.23676
898.208	709.19758
898.377	137.89802
898.547	792.06794
898.717	1022.74703
898.886	419.582
899.056	610.78672
899.226	1487.4874
899.395	474.67409
899.565	868.93676
899.735	445.93777
899.904	1090.11269
900.074	1008.84513
900.244	269.87387
900.413	1220.96166
900.583	257.64148
900.752	435.15889
900.922	2137.6182
901.091	63.13023
901.261	631.32894
901.43	680.04233
901.599	572.8512
901.769	7181.53106
901.938	736.00563
902.108	796.14278
902.277	1599.02828
902.446	252.91111
902.616	225.69045
902.785	334.30744
902.954	677.15488
903.124	490.21231
903.293	325.29256
903.462	171.43689
903.631	243.5856
903.801	185.66726
903.97	92.64428
904.139	148.18203
904.308	111.52508
904.477	89.58267
904.646	51.57931
904.816	66.33217
904.985	124.42793
905.154	190.05018
