Data from WindowProjectSample_Transmission__29__00029.txt Node

Date: Sat May 03 15:31:57 EDT 2025
User: jessi
Spectrometer: SR400872
Trigger mode: 0
Integration Time (sec): 5.000010E-1
Scans to average: 6
Electric dark correction enabled: true
Nonlinearity correction enabled: true
Boxcar width: 0
XAxis mode: Wavelengths
Number of Pixels in Spectrum: 3648
>>>>>Begin Spectral Data<<<<<
184.909	19250.29439
185.132	2740.7288
185.355	23328.95139
185.578	-8056.6124
185.801	406.12213
186.024	-1558.38013
186.247	811.95689
186.47	1666.05281
186.693	-58.16631
186.916	-1977.1229
187.139	-2726.24196
187.362	1699.1448
187.585	2966.17206
187.808	-3024.82877
188.031	-995.01007
188.254	-1325.44841
188.476	-843.36953
188.699	2621.15446
188.922	-938.96299
189.145	-10150.22474
189.368	-469.99208
189.591	-1096.84511
189.813	-1891.97008
190.036	1257.70165
190.259	1817.55803
190.482	600.8542
190.705	10911.19813
190.927	-1071.74181
191.15	3641.42695
191.373	2419.6415
191.595	-2294.21449
191.818	2576.97461
192.041	-350.46994
192.263	2844.10199
192.486	2029.05669
192.709	-5543.38025
192.931	2868.16698
193.154	-6552.70211
193.377	179163.76015
193.599	1486.08696
193.822	1866.36714
194.044	-2143.00033
194.267	478.54753
194.489	-586.31673
194.712	1526.66962
194.934	3448.52227
195.157	-14633.51416
195.379	810.96455
195.602	2442.42237
195.824	2141.94414
196.047	2486.34315
196.269	3044.77438
196.492	3261.58593
196.714	2742.79247
196.936	1196.01565
197.159	1505.02967
197.381	-2206.33662
197.604	-710.18438
197.826	6745.4941
198.048	3009.07135
198.271	4182.87291
198.493	2012.50254
198.715	-6002.70912
198.938	-600.66652
199.16	1963.48223
199.382	1496.97787
199.604	-703.58104
199.827	9047.20605
200.049	916.61412
200.271	-2958.19456
200.493	-56099.26849
200.715	2265.21815
200.938	6723.60358
201.16	-7370.6231
201.382	-2915.66426
201.604	-2106.37593
201.826	7228.14127
202.048	964.8837
202.27	-16702.59499
202.492	4909.55146
202.715	-1104.6637
202.937	4745.04136
203.159	-2309.409
203.381	963.49103
203.603	-3491.01657
203.825	-2882.2522
204.047	3404.93724
204.269	-2071.95955
204.491	2165.80673
204.713	1986.66006
204.935	14881.79721
205.156	1837.48035
205.378	-8973.81559
205.6	-4156.78719
205.822	8961.84812
206.044	-673.79748
206.266	4498.65406
206.488	1165.35706
206.71	28643.8688
206.932	2539.43387
207.153	-5054.4312
207.375	-1995.19533
207.597	8968.20757
207.819	4338.06886
208.041	2246.70329
208.262	-2274.12772
208.484	-1094.1434
208.706	-2852.87032
208.927	32426.20301
209.149	951.93733
209.371	-6278.20997
209.593	1452.38657
209.814	5618.82056
210.036	-2756.40279
210.258	-5513.40645
210.479	-1445.91244
210.701	975.26965
210.922	6491.60266
211.144	-1217.27853
211.366	-6382.93451
211.587	-503.45838
211.809	9532.97331
212.03	-1350.80505
212.252	-1823.62809
212.473	701.74974
212.695	-2441.06947
212.916	2900.238
213.138	2928.91327
213.359	-1798.02697
213.581	6676.89144
213.802	-1884.35674
214.024	17666.51629
214.245	-3220.58372
214.466	-691.65474
214.688	1644.02134
214.909	902.20162
215.131	-95406.68754
215.352	1682.54042
215.573	2557.77937
215.795	2884.80209
216.016	3967.5236
216.237	-663.12178
216.459	6574.46222
216.68	98277.4305
216.901	-85276.75853
217.122	2045.60757
217.344	6497.37541
217.565	-58213.83913
217.786	1579.17045
218.007	1524.44579
218.228	-1341.88044
218.45	-1257.60754
218.671	-1113.73502
218.892	1204.1733
219.113	-18438.33272
219.334	-452.77171
219.555	-5771.54579
219.776	1690.02718
219.997	3363.48389
220.219	1062.12088
220.44	2289.62018
220.661	-3101.20995
220.882	3317.92893
221.103	-1298.81803
221.324	993.81753
221.545	2225.47433
221.766	-6226.90576
221.987	4574.66148
222.208	-1753.52568
222.429	3513.75494
222.65	-176.11359
222.87	-581.45999
223.091	8571.49166
223.312	2728.99477
223.533	7056.79492
223.754	1895.46638
223.975	1428.21896
224.196	-12196.18393
224.417	1011.31336
224.637	885.8364
224.858	-469.83842
225.079	7516.55519
225.3	595.27227
225.521	2104.33703
225.741	1477.43758
225.962	762.53214
226.183	298.6792
226.404	668.1357
226.624	570.39571
226.845	368.65523
227.066	416.93883
227.286	180.70661
227.507	96.93666
227.728	83.98562
227.948	127.23883
228.169	43.18346
228.389	47.17409
228.61	26.00455
228.831	36.11016
229.051	4.01604
229.272	22.50137
229.492	31.24021
229.713	9.01067
229.933	23.1797
230.154	19.79887
230.374	32.686
230.595	24.66214
230.815	17.29072
231.036	24.14489
231.256	-3.27038
231.477	44.68446
231.697	23.77338
231.917	24.17881
232.138	39.28536
232.358	75.10746
232.579	63.25879
232.799	9.5338
233.019	67.53339
233.24	81.85434
233.46	24.36695
233.68	43.69782
233.901	29.3441
234.121	19.20818
234.341	8.40297
234.561	-3.08565
234.782	17.17692
235.002	47.22121
235.222	1.85786
235.442	41.02265
235.662	21.08425
235.883	42.79863
236.103	36.27894
236.323	26.32381
236.543	17.79307
236.763	29.97536
236.983	32.50326
237.203	31.36515
237.423	43.54604
237.643	62.55283
237.864	52.36626
238.084	16.83963
238.304	21.09755
238.524	35.26048
238.744	31.30975
238.964	47.23792
239.184	44.11168
239.404	44.41071
239.624	24.29943
239.843	41.2212
240.063	24.33967
240.283	15.66602
240.503	17.1584
240.723	16.6914
240.943	9.19054
241.163	14.11772
241.383	9.28184
241.603	5.16983
241.822	6.1241
242.042	4.61556
242.262	6.16616
242.482	6.6357
242.702	8.4263
242.921	2.96277
243.141	5.48444
243.361	5.11243
243.581	7.4848
243.8	6.03264
244.02	3.64223
244.24	8.49945
244.459	7.39377
244.679	14.72665
244.899	9.41121
245.118	10.94184
245.338	9.72545
245.558	10.52766
245.777	6.41012
245.997	7.5661
246.216	7.68773
246.436	4.44791
246.655	3.1355
246.875	2.67765
247.094	4.99132
247.314	1.91485
247.533	2.81469
247.753	3.58742
247.972	2.95624
248.192	1.239
248.411	1.79938
248.631	3.22181
248.85	4.18033
249.07	2.41711
249.289	5.26068
249.508	3.91611
249.728	6.108
249.947	6.63162
250.166	7.05114
250.386	3.75139
250.605	5.25076
250.824	9.10713
251.044	6.78804
251.263	20.77394
251.482	11.08823
251.701	9.80235
251.921	0.14548
252.14	3.2375
252.359	3.3044
252.578	8.18237
252.798	3.09654
253.017	7.68805
253.236	4.00847
253.455	5.04656
253.674	9.78006
253.893	4.58246
254.112	6.58199
254.331	9.70439
254.551	7.34896
254.77	3.92533
254.989	12.06929
255.208	9.58811
255.427	12.26981
255.646	11.13304
255.865	17.22586
256.084	6.63557
256.303	9.11878
256.522	12.04856
256.741	2.28538
256.96	3.23904
257.179	6.84639
257.397	9.44912
257.616	4.54533
257.835	4.52741
258.054	12.28566
258.273	7.60386
258.492	9.06335
258.711	5.17671
258.93	2.58599
259.148	3.48272
259.367	3.52727
259.586	4.33179
259.805	2.26847
260.023	4.23959
260.242	3.38897
260.461	2.25875
260.68	1.42211
260.898	3.77506
261.117	1.32792
261.336	1.01698
261.554	3.37793
261.773	3.25175
261.992	0.67569
262.21	3.13661
262.429	3.89512
262.648	6.71606
262.866	7.02897
263.085	4.78649
263.303	4.18258
263.522	7.818
263.74	8.09899
263.959	12.64783
264.178	6.65192
264.396	5.82652
264.615	4.29286
264.833	9.96521
265.051	8.74301
265.27	8.57906
265.488	9.54521
265.707	6.06567
265.925	8.92256
266.144	4.2049
266.362	5.24286
266.58	4.9256
266.799	4.04719
267.017	5.20931
267.235	4.54001
267.454	3.06128
267.672	1.83708
267.89	3.65773
268.109	4.40778
268.327	3.50183
268.545	1.14116
268.763	3.75446
268.982	1.09376
269.2	4.72048
269.418	2.71203
269.636	2.11346
269.854	3.80373
270.073	3.29243
270.291	1.71236
270.509	1.76499
270.727	3.79999
270.945	6.27538
271.163	6.20199
271.381	1.45637
271.599	2.53301
271.817	4.53065
272.036	1.8692
272.254	2.78938
272.472	2.28447
272.69	2.32429
272.908	2.28084
273.126	3.68053
273.344	4.69059
273.562	1.9266
273.779	2.35369
273.997	3.49375
274.215	3.80933
274.433	2.72756
274.651	4.17113
274.869	3.9143
275.087	2.38232
275.305	3.7993
275.523	2.04587
275.74	3.05021
275.958	4.73748
276.176	6.99211
276.394	2.05797
276.612	2.83967
276.829	2.77212
277.047	2.57552
277.265	2.6289
277.483	3.26142
277.7	3.73955
277.918	3.0675
278.136	5.7738
278.353	2.6453
278.571	1.53692
278.789	4.63971
279.006	1.00214
279.224	2.78491
279.442	4.53825
279.659	2.94819
279.877	2.37937
280.094	4.89732
280.312	1.12796
280.529	3.07795
280.747	0.96501
280.964	2.49042
281.182	5.19279
281.399	2.34963
281.617	3.56695
281.834	2.39707
282.052	2.11061
282.269	2.82668
282.487	2.48793
282.704	1.93043
282.921	2.14428
283.139	2.72087
283.356	3.79809
283.574	3.41185
283.791	1.81081
284.008	4.76875
284.226	2.49878
284.443	2.92129
284.66	3.59744
284.877	2.98447
285.095	2.01252
285.312	1.30193
285.529	1.06598
285.746	0.84249
285.964	1.78102
286.181	1.19541
286.398	1.81649
286.615	2.475
286.832	2.36672
287.05	0.80345
287.267	1.55027
287.484	1.74234
287.701	2.44331
287.918	2.46306
288.135	2.49971
288.352	1.14697
288.569	1.16305
288.786	2.14137
289.003	1.68393
289.22	2.60409
289.437	1.74002
289.654	2.70029
289.871	2.99767
290.088	2.69319
290.305	2.11485
290.522	1.48426
290.739	1.87684
290.956	2.72909
291.173	3.48905
291.39	3.30542
291.607	2.12676
291.824	1.65481
292.04	1.11499
292.257	2.78882
292.474	3.06023
292.691	1.9278
292.908	1.13504
293.125	1.69515
293.341	1.03288
293.558	4.4819
293.775	2.01818
293.992	1.9972
294.208	0.8649
294.425	1.07798
294.642	1.64109
294.858	2.22619
295.075	0.70032
295.292	1.80908
295.508	2.23783
295.725	3.40151
295.942	1.69998
296.158	1.09985
296.375	1.97541
296.591	1.45099
296.808	1.66531
297.024	1.69213
297.241	1.93858
297.458	2.29442
297.674	0.152
297.891	1.70473
298.107	1.26264
298.323	1.02753
298.54	2.59433
298.756	1.14363
298.973	0.47229
299.189	2.72589
299.406	1.24291
299.622	2.7319
299.838	2.57896
300.055	2.54818
300.271	0.5971
300.487	0.83892
300.704	1.00374
300.92	0.69906
301.136	3.87426
301.353	2.60748
301.569	1.85754
301.785	2.17417
302.001	2.56414
302.218	2.28876
302.434	2.03373
302.65	0.80179
302.866	1.50966
303.083	3.62496
303.299	3.54069
303.515	1.65419
303.731	1.99628
303.947	0.7174
304.163	1.11719
304.379	2.10704
304.595	2.37036
304.812	1.33724
305.028	1.09989
305.244	1.55228
305.46	2.55071
305.676	2.63246
305.892	3.00576
306.108	2.03335
306.324	1.43708
306.54	3.63896
306.756	2.60853
306.972	2.48485
307.187	1.70379
307.403	3.25148
307.619	1.38549
307.835	2.72806
308.051	3.24561
308.267	0.60525
308.483	2.78139
308.699	2.37934
308.914	1.99026
309.13	1.85168
309.346	0.5656
309.562	1.04445
309.778	0.67559
309.993	2.3676
310.209	1.94685
310.425	0.81523
310.641	1.59923
310.856	1.06793
311.072	0.89685
311.288	1.79169
311.503	2.0836
311.719	0.42938
311.935	0.34484
312.15	2.25875
312.366	1.96318
312.581	2.37159
312.797	1.99082
313.013	2.60462
313.228	1.58457
313.444	1.96319
313.659	1.45695
313.875	2.30313
314.09	1.87262
314.306	2.786
314.521	2.72627
314.737	2.4957
314.952	2.10812
315.168	1.88769
315.383	2.41938
315.599	1.61976
315.814	1.63248
316.029	2.65018
316.245	0.92178
316.46	0.84034
316.675	2.9894
316.891	3.8157
317.106	4.49675
317.321	2.72711
317.537	2.63471
317.752	2.74674
317.967	2.76369
318.183	1.29688
318.398	1.56159
318.613	2.9341
318.828	3.24389
319.043	2.74743
319.259	1.68164
319.474	2.27082
319.689	2.9768
319.904	0.58965
320.119	2.75417
320.334	2.1739
320.549	1.99043
320.765	2.9272
320.98	2.25133
321.195	2.88405
321.41	1.95709
321.625	2.78871
321.84	3.64552
322.055	3.53713
322.27	1.41712
322.485	1.2168
322.7	2.19406
322.915	3.00829
323.13	1.43577
323.345	3.64773
323.56	2.92181
323.775	2.78292
323.989	2.60047
324.204	2.13588
324.419	2.91451
324.634	1.15064
324.849	2.01142
325.064	4.42794
325.279	3.23241
325.493	2.80076
325.708	2.94717
325.923	1.47056
326.138	1.69932
326.352	3.5819
326.567	3.05613
326.782	1.7626
326.997	1.69972
327.211	2.65021
327.426	2.54696
327.641	1.96058
327.855	0.98787
328.07	2.674
328.285	4.00871
328.499	2.04847
328.714	2.74753
328.928	2.89218
329.143	2.4189
329.358	3.25681
329.572	3.16953
329.787	3.81277
330.001	4.57537
330.216	1.09796
330.43	4.31444
330.645	3.65995
330.859	3.02172
331.074	1.70831
331.288	2.53552
331.503	3.95671
331.717	1.41784
331.931	2.46453
332.146	2.7222
332.36	4.30172
332.575	2.76746
332.789	2.42666
333.003	2.60541
333.218	2.87469
333.432	2.18051
333.646	3.28422
333.86	4.06196
334.075	4.03256
334.289	2.25084
334.503	1.70512
334.717	3.20271
334.932	2.78175
335.146	3.46154
335.36	2.13021
335.574	3.0588
335.788	2.7107
336.003	3.47549
336.217	3.452
336.431	3.10679
336.645	2.08461
336.859	1.74276
337.073	2.60689
337.287	2.92583
337.501	1.81714
337.715	3.16244
337.929	3.34385
338.143	1.868
338.357	2.77996
338.571	2.31118
338.785	3.67552
338.999	2.42482
339.213	2.55394
339.427	1.74439
339.641	3.91214
339.855	2.41223
340.069	2.05419
340.283	3.67491
340.497	4.32767
340.711	3.33345
340.924	3.02508
341.138	1.97823
341.352	1.92295
341.566	3.03008
341.78	1.83553
341.993	2.61815
342.207	2.15707
342.421	3.35353
342.635	3.14841
342.848	2.70264
343.062	1.19666
343.276	2.54286
343.49	4.78373
343.703	2.52761
343.917	4.0119
344.131	4.16417
344.344	2.39174
344.558	2.74314
344.771	2.16996
344.985	4.2961
345.199	4.7849
345.412	3.48284
345.626	3.79002
345.839	2.01985
346.053	2.33375
346.266	2.37733
346.48	3.97993
346.693	3.6065
346.907	3.8057
347.12	2.50092
347.334	3.46044
347.547	3.77395
347.76	3.55235
347.974	4.30407
348.187	3.54367
348.401	3.14756
348.614	2.53922
348.827	3.22454
349.041	3.78322
349.254	2.18495
349.467	3.16104
349.681	2.64582
349.894	2.65256
350.107	4.72026
350.32	5.22907
350.534	2.29104
350.747	3.20774
350.96	3.04235
351.173	3.13181
351.386	3.43961
351.6	3.06892
351.813	3.43799
352.026	3.59504
352.239	2.84451
352.452	3.29239
352.665	4.54526
352.878	3.31777
353.092	5.69418
353.305	4.37336
353.518	3.95272
353.731	2.80214
353.944	4.81535
354.157	3.30441
354.37	3.55882
354.583	2.95644
354.796	3.1568
355.009	4.79432
355.222	4.17404
355.435	4.09263
355.647	5.01186
355.86	3.55958
356.073	4.14821
356.286	3.60801
356.499	4.87108
356.712	4.91225
356.925	4.78448
357.138	5.08347
357.35	3.70292
357.563	4.07341
357.776	4.5859
357.989	4.55635
358.201	4.78995
358.414	4.65512
358.627	5.6061
358.84	4.4288
359.052	3.72351
359.265	3.88561
359.478	5.35799
359.69	2.51399
359.903	5.35036
360.116	5.52353
360.328	3.44988
360.541	5.37528
360.753	4.40089
360.966	4.61766
361.179	4.86423
361.391	4.82236
361.604	4.51816
361.816	4.67996
362.029	4.84127
362.241	4.49938
362.454	5.01832
362.666	4.48008
362.879	5.5853
363.091	4.7129
363.304	4.77271
363.516	4.84812
363.728	4.22497
363.941	5.2353
364.153	5.01675
364.366	3.6959
364.578	4.32565
364.79	5.39304
365.003	5.48162
365.215	4.70813
365.427	5.68345
365.639	5.90938
365.852	5.37716
366.064	6.37469
366.276	4.81129
366.488	5.41979
366.701	5.09282
366.913	4.87455
367.125	5.12471
367.337	4.75105
367.549	4.87331
367.762	5.02536
367.974	5.31828
368.186	5.21405
368.398	6.05882
368.61	5.674
368.822	5.75919
369.034	5.01923
369.246	6.05753
369.458	7.45999
369.67	4.73017
369.882	6.67869
370.094	3.97699
370.306	6.32186
370.518	5.087
370.73	4.90469
370.942	5.147
371.154	5.52907
371.366	5.4336
371.578	6.03525
371.79	5.56963
372.002	6.5541
372.214	7.41802
372.425	5.54747
372.637	7.00303
372.849	5.92903
373.061	4.11432
373.273	6.03933
373.484	6.11791
373.696	6.40563
373.908	4.29041
374.12	6.32289
374.331	6.2099
374.543	5.03826
374.755	5.11508
374.967	5.83238
375.178	6.79744
375.39	5.86278
375.602	6.03221
375.813	4.95976
376.025	5.2652
376.236	6.13694
376.448	6.07251
376.66	6.06408
376.871	6.236
377.083	6.79851
377.294	7.6151
377.506	6.03106
377.717	7.22492
377.929	6.54082
378.14	6.36218
378.352	6.58939
378.563	7.03572
378.775	7.44369
378.986	5.58243
379.197	6.48045
379.409	5.71085
379.62	6.78161
379.832	6.2674
380.043	6.2866
380.254	6.76794
380.466	5.45833
380.677	8.60693
380.888	7.88164
381.1	8.83491
381.311	8.84709
381.522	7.10591
381.733	8.83232
381.945	6.61284
382.156	6.39126
382.367	6.46878
382.578	8.95393
382.789	9.10234
383.001	5.90792
383.212	8.09347
383.423	8.20743
383.634	7.67238
383.845	7.55035
384.056	6.57805
384.267	6.99452
384.478	7.02258
384.69	6.18121
384.901	7.5014
385.112	7.12269
385.323	8.4575
385.534	7.35974
385.745	7.58212
385.956	7.33196
386.167	6.61648
386.378	7.69425
386.588	6.78514
386.799	6.49895
387.01	6.21415
387.221	7.98772
387.432	7.4688
387.643	8.38763
387.854	7.03679
388.065	7.15783
388.275	7.08512
388.486	6.69559
388.697	7.69686
388.908	6.87097
389.119	8.26163
389.329	8.30823
389.54	7.52613
389.751	7.79571
389.962	8.19887
390.172	7.37704
390.383	7.44982
390.594	6.98099
390.804	6.88824
391.015	7.15221
391.226	7.90688
391.436	8.30458
391.647	8.03173
391.858	8.09758
392.068	6.49131
392.279	7.16894
392.489	8.05814
392.7	8.29672
392.91	7.43635
393.121	7.25835
393.331	8.18728
393.542	8.55758
393.752	8.50391
393.963	8.2036
394.173	8.33486
394.384	8.45138
394.594	7.93286
394.804	7.31061
395.015	7.95842
395.225	8.34229
395.436	7.30391
395.646	8.37416
395.856	7.74134
396.067	6.9919
396.277	8.57315
396.487	8.22995
396.697	8.31697
396.908	8.50746
397.118	8.43819
397.328	8.16656
397.538	8.72484
397.749	7.66656
397.959	8.8188
398.169	8.42553
398.379	7.02458
398.589	8.31948
398.8	8.4335
399.01	8.41619
399.22	8.00795
399.43	9.66538
399.64	8.09519
399.85	8.4499
400.06	8.33812
400.27	7.7467
400.48	8.07829
400.69	8.86044
400.9	7.9485
401.11	7.36296
401.32	8.67945
401.53	7.75192
401.74	9.1233
401.95	8.42277
402.16	8.2263
402.37	8.45965
402.58	8.15046
402.79	8.59496
403	9.01532
403.209	8.19561
403.419	9.1569
403.629	7.89752
403.839	9.07263
404.049	9.06824
404.258	8.25148
404.468	8.23055
404.678	9.17342
404.888	9.59713
405.097	8.69671
405.307	8.60835
405.517	9.01267
405.727	9.13689
405.936	8.42973
406.146	8.89124
406.356	9.58197
406.565	8.81333
406.775	8.49175
406.984	8.42853
407.194	10.25208
407.404	8.91827
407.613	8.96085
407.823	9.11912
408.032	9.88914
408.242	9.16342
408.451	8.57191
408.661	8.70915
408.87	9.92409
409.08	8.32396
409.289	9.03281
409.499	9.0167
409.708	8.87774
409.918	7.49445
410.127	9.08063
410.336	9.98789
410.546	9.46648
410.755	8.61676
410.964	8.73787
411.174	8.23931
411.383	9.44253
411.592	9.13966
411.802	8.25876
412.011	9.51958
412.22	8.88397
412.429	10.03116
412.639	10.16817
412.848	9.68779
413.057	10.32858
413.266	9.66228
413.475	8.95751
413.685	9.551
413.894	9.61003
414.103	9.83173
414.312	9.54371
414.521	8.91715
414.73	9.57974
414.939	10.40602
415.148	9.67109
415.357	9.53633
415.566	9.21191
415.776	9.33679
415.985	9.19835
416.194	10.02767
416.403	10.75218
416.611	8.7059
416.82	9.30347
417.029	9.73549
417.238	9.22315
417.447	9.31357
417.656	9.7594
417.865	9.61589
418.074	10.14863
418.283	10.77718
418.492	12.00368
418.7	11.86406
418.909	13.57711
419.118	12.14059
419.327	12.89408
419.536	12.53982
419.744	12.88007
419.953	14.40267
420.162	14.49563
420.371	13.9214
420.579	14.8829
420.788	15.77649
420.997	16.10749
421.205	16.21875
421.414	15.89682
421.623	16.25839
421.831	15.5544
422.04	16.0438
422.249	14.83872
422.457	15.32953
422.666	14.44745
422.874	15.41812
423.083	15.69615
423.291	15.56872
423.5	15.72956
423.708	16.08433
423.917	16.90281
424.125	16.01499
424.334	15.81211
424.542	17.84767
424.751	17.05817
424.959	16.6284
425.167	16.90455
425.376	16.59759
425.584	14.96219
425.793	14.69432
426.001	13.53958
426.209	13.51199
426.418	12.21053
426.626	11.35032
426.834	11.00186
427.042	10.81433
427.251	10.36787
427.459	11.16548
427.667	10.81977
427.875	9.86103
428.084	10.40088
428.292	11.42896
428.5	11.15502
428.708	10.06462
428.916	10.23362
429.124	10.63586
429.333	10.51461
429.541	10.61614
429.749	10.95648
429.957	10.81808
430.165	12.16182
430.373	9.94585
430.581	10.77491
430.789	11.64824
430.997	10.80871
431.205	10.30859
431.413	11.06503
431.621	10.76493
431.829	11.37399
432.037	10.80846
432.245	11.20849
432.453	11.3729
432.661	11.06772
432.869	12.59437
433.076	11.24447
433.284	11.97946
433.492	12.70895
433.7	12.93707
433.908	12.05968
434.116	12.44092
434.323	12.0587
434.531	11.86983
434.739	11.76978
434.947	11.80064
435.154	11.8661
435.362	11.19164
435.57	11.18799
435.778	10.87592
435.985	11.54537
436.193	10.91864
436.401	11.95781
436.608	11.31868
436.816	11.01065
437.023	12.24
437.231	12.43065
437.439	11.5457
437.646	11.73127
437.854	11.58675
438.061	11.85861
438.269	11.58229
438.476	11.9922
438.684	11.95177
438.891	12.29338
439.099	12.10814
439.306	12.02615
439.514	12.41771
439.721	14.15677
439.929	13.49772
440.136	14.99022
440.343	14.94053
440.551	14.82333
440.758	16.63611
440.965	15.14064
441.173	14.88158
441.38	14.3295
441.587	14.13227
441.795	13.92567
442.002	13.16855
442.209	12.97075
442.416	12.65397
442.624	12.45914
442.831	12.04873
443.038	11.55689
443.245	11.2675
443.452	11.62306
443.66	12.16835
443.867	11.64004
444.074	11.54321
444.281	11.94679
444.488	12.31754
444.695	13.05312
444.902	13.30585
445.109	14.92924
445.316	14.71793
445.523	15.43972
445.73	15.64769
445.937	16.70126
446.144	17.50515
446.351	17.93616
446.558	16.52468
446.765	18.75984
446.972	17.69606
447.179	17.38818
447.386	17.86226
447.593	15.98712
447.8	16.88884
448.007	15.12689
448.214	14.04215
448.42	13.49208
448.627	13.84834
448.834	13.04171
449.041	12.47367
449.248	12.06545
449.454	12.38228
449.661	12.92639
449.868	11.62202
450.075	11.64413
450.281	10.97909
450.488	11.3551
450.695	11.63939
450.901	11.46739
451.108	11.68369
451.315	12.80014
451.521	11.91991
451.728	12.68681
451.935	11.75413
452.141	11.94848
452.348	12.17304
452.554	12.20577
452.761	11.76561
452.967	13.13913
453.174	12.30358
453.38	12.23196
453.587	11.53682
453.793	12.25047
454	12.48228
454.206	13.44038
454.413	12.73312
454.619	12.62762
454.825	11.7457
455.032	12.49368
455.238	12.70321
455.445	11.31783
455.651	12.26283
455.857	11.04054
456.064	12.04672
456.27	12.14831
456.476	11.7178
456.682	11.33425
456.889	12.46055
457.095	12.44873
457.301	13.39966
457.507	12.31759
457.714	12.21881
457.92	12.33725
458.126	12.02448
458.332	12.36279
458.538	12.37524
458.744	13.27073
458.951	13.83766
459.157	16.56694
459.363	16.07299
459.569	16.62857
459.775	17.25934
459.981	17.27435
460.187	17.61153
460.393	17.50704
460.599	17.45585
460.805	16.156
461.011	14.97675
461.217	14.49441
461.423	13.33754
461.629	12.68611
461.835	13.00752
462.041	12.5333
462.247	13.55243
462.453	12.56559
462.658	12.43036
462.864	12.99059
463.07	12.57537
463.276	12.63259
463.482	12.57895
463.688	13.6061
463.893	12.02515
464.099	12.5998
464.305	13.64602
464.511	12.42339
464.716	12.5665
464.922	13.19491
465.128	11.92421
465.333	13.5718
465.539	13.02358
465.745	13.02982
465.95	12.72849
466.156	14.79014
466.362	13.53957
466.567	12.76251
466.773	12.48581
466.978	14.02432
467.184	12.5041
467.389	11.89609
467.595	13.30808
467.8	12.57891
468.006	14.00934
468.211	13.63904
468.417	12.38228
468.622	13.18414
468.828	13.27136
469.033	13.1464
469.239	14.59113
469.444	12.56899
469.649	13.48377
469.855	13.05611
470.06	13.14409
470.266	12.40976
470.471	13.5573
470.676	13.25435
470.881	11.83398
471.087	14.29943
471.292	14.27501
471.497	12.14879
471.703	12.96138
471.908	12.78133
472.113	13.20131
472.318	13.64819
472.523	12.50768
472.729	13.28083
472.934	13.32256
473.139	12.97332
473.344	13.46352
473.549	14.09396
473.754	12.66613
473.959	14.62912
474.164	12.77301
474.369	13.01863
474.575	13.63768
474.78	13.40961
474.985	12.77564
475.19	12.06616
475.395	12.76502
475.6	12.99327
475.804	14.42422
476.009	13.42145
476.214	13.11002
476.419	12.94641
476.624	12.3486
476.829	12.84782
477.034	13.70368
477.239	12.93226
477.444	13.40093
477.648	13.88267
477.853	13.84106
478.058	13.08267
478.263	12.87652
478.468	12.77606
478.672	12.85669
478.877	14.34933
479.082	14.39411
479.287	13.8148
479.491	13.60726
479.696	12.91617
479.901	14.02674
480.105	13.79187
480.31	13.02217
480.515	13.37008
480.719	15.01271
480.924	13.378
481.128	13.43091
481.333	14.69096
481.538	15.07514
481.742	15.79685
481.947	17.57388
482.151	19.07028
482.356	20.83305
482.56	24.46847
482.765	27.60758
482.969	33.0233
483.174	37.1436
483.378	42.61324
483.582	44.29121
483.787	46.94535
483.991	47.59799
484.196	47.29159
484.4	46.4606
484.604	45.68771
484.809	41.55944
485.013	38.73283
485.217	34.59569
485.422	30.72625
485.626	27.99276
485.83	26.71901
486.034	26.08007
486.239	26.98621
486.443	27.98417
486.647	29.18396
486.851	31.17604
487.055	33.15208
487.26	33.77431
487.464	35.15519
487.668	34.58245
487.872	35.35495
488.076	35.34009
488.28	33.47517
488.484	31.10113
488.688	29.88362
488.892	28.09447
489.096	26.12994
489.3	23.7293
489.504	22.36666
489.708	21.38787
489.912	20.94051
490.116	20.59886
490.32	20.67807
490.524	22.45801
490.728	24.36879
490.932	26.00262
491.136	27.78872
491.34	29.41051
491.544	29.74558
491.748	29.86974
491.951	29.67938
492.155	28.60831
492.359	27.30447
492.563	24.71043
492.767	23.12869
492.97	20.43872
493.174	18.12114
493.378	16.61615
493.582	14.94498
493.785	14.2508
493.989	14.04666
494.193	13.43747
494.396	12.83336
494.6	13.36634
494.804	12.96338
495.007	13.68139
495.211	13.78963
495.414	13.86845
495.618	14.39364
495.822	14.85339
496.025	14.28863
496.229	14.76717
496.432	14.43845
496.636	15.03646
496.839	15.10047
497.043	16.07051
497.246	15.46519
497.45	14.96021
497.653	15.29594
497.856	14.9898
498.06	14.48036
498.263	14.14993
498.467	14.11778
498.67	14.75735
498.873	14.52049
499.077	14.21716
499.28	14.40312
499.483	14.5997
499.686	14.83934
499.89	14.2514
500.093	14.92156
500.296	13.78945
500.499	15.31586
500.703	14.19111
500.906	14.47535
501.109	15.2701
501.312	14.42363
501.515	14.19311
501.719	14.60447
501.922	14.83918
502.125	14.51424
502.328	14.25701
502.531	13.65537
502.734	14.3828
502.937	13.43505
503.14	14.47018
503.343	13.96214
503.546	14.33859
503.749	14.18552
503.952	14.77908
504.155	14.21615
504.358	14.79045
504.561	14.75209
504.764	13.79084
504.967	14.81713
505.17	14.33641
505.373	15.53287
505.576	14.38679
505.778	15.01888
505.981	13.86594
506.184	15.31957
506.387	13.45357
506.59	15.82725
506.793	15.15732
506.995	14.78379
507.198	13.3397
507.401	14.88137
507.604	14.82837
507.806	13.99107
508.009	14.05206
508.212	15.16977
508.414	14.2605
508.617	14.45898
508.82	14.66581
509.022	15.84919
509.225	15.0407
509.427	13.82062
509.63	15.53198
509.833	14.77927
510.035	14.33068
510.238	13.79736
510.44	15.55
510.643	13.7308
510.845	15.87249
511.048	14.80137
511.25	14.32557
511.453	14.49062
511.655	14.96907
511.858	14.56893
512.06	15.26016
512.262	14.93658
512.465	15.49953
512.667	14.70041
512.869	14.15587
513.072	15.07031
513.274	15.22377
513.476	15.26547
513.679	15.32676
513.881	14.23347
514.083	15.68216
514.286	14.46326
514.488	14.23444
514.69	14.20291
514.892	14.18833
515.094	15.11577
515.297	14.33369
515.499	14.77477
515.701	14.15146
515.903	15.81003
516.105	16.03022
516.307	15.27224
516.509	13.62694
516.711	14.16085
516.913	14.6871
517.116	14.71203
517.318	14.55367
517.52	15.6008
517.722	15.44856
517.924	14.99612
518.126	16.39661
518.328	16.11498
518.529	16.92373
518.731	17.70921
518.933	15.98486
519.135	16.00723
519.337	16.77496
519.539	15.72044
519.741	14.07998
519.943	14.59787
520.145	14.70303
520.346	15.56759
520.548	14.88259
520.75	15.1966
520.952	14.6779
521.153	15.1662
521.355	15.24089
521.557	14.3079
521.759	14.95401
521.96	14.77663
522.162	14.2229
522.364	15.62855
522.565	14.38182
522.767	15.40152
522.969	15.45387
523.17	15.20259
523.372	14.89546
523.573	14.85468
523.775	14.83796
523.977	14.09777
524.178	16.18561
524.38	14.83497
524.581	15.35907
524.783	14.80391
524.984	16.38572
525.186	16.55808
525.387	17.54976
525.589	17.57913
525.79	17.93874
525.991	17.75256
526.193	18.59846
526.394	17.70708
526.596	19.04029
526.797	19.67776
526.998	19.4557
527.2	20.71996
527.401	24.07774
527.602	26.37683
527.803	30.59999
528.005	33.1107
528.206	35.581
528.407	37.28798
528.608	37.46872
528.81	37.68257
529.011	36.46155
529.212	36.88343
529.413	34.24345
529.614	31.68951
529.815	29.5036
530.017	26.35836
530.218	23.55985
530.419	21.0608
530.62	20.1486
530.821	19.01982
531.022	17.24211
531.223	18.34856
531.424	17.98558
531.625	18.57983
531.826	18.29682
532.027	19.47839
532.228	21.78636
532.429	22.40094
532.63	23.43571
532.831	25.12863
533.032	25.13733
533.233	26.09363
533.433	25.7289
533.634	25.68887
533.835	24.38342
534.036	23.45107
534.237	21.90836
534.438	20.28515
534.638	18.22406
534.839	17.32476
535.04	16.65691
535.241	15.98128
535.441	17.34185
535.642	16.87624
535.843	16.60517
536.043	17.20097
536.244	17.71082
536.445	17.9629
536.645	18.96658
536.846	18.72575
537.047	18.77615
537.247	17.06666
537.448	16.50855
537.648	16.35773
537.849	15.28887
538.049	15.40924
538.25	15.66807
538.451	15.87618
538.651	14.59965
538.851	15.496
539.052	16.1013
539.252	15.85162
539.453	15.03252
539.653	15.73342
539.854	15.49541
540.054	17.26725
540.254	19.92719
540.455	22.35095
540.655	23.12359
540.855	25.72694
541.056	27.68513
541.256	27.47384
541.456	28.60832
541.657	27.82343
541.857	28.48571
542.057	26.34287
542.257	25.01103
542.458	24.8149
542.658	23.15451
542.858	20.74116
543.058	20.2619
543.258	19.26719
543.458	17.12224
543.659	16.46639
543.859	16.95901
544.059	16.60697
544.259	15.52024
544.459	16.09291
544.659	15.12804
544.859	15.72792
545.059	15.0277
545.259	16.00282
545.459	15.50061
545.659	16.22061
545.859	15.65573
546.059	15.68105
546.259	15.18508
546.459	14.89132
546.659	15.0009
546.859	16.16741
547.059	15.85195
547.258	15.90512
547.458	16.07663
547.658	15.24677
547.858	14.87667
548.058	15.80985
548.258	15.31511
548.457	14.65694
548.657	16.92619
548.857	15.31456
549.057	15.73036
549.256	15.66587
549.456	15.15432
549.656	13.77192
549.855	16.87853
550.055	14.91064
550.255	16.75574
550.454	15.77445
550.654	15.92807
550.853	16.49628
551.053	16.00667
551.253	15.71345
551.452	15.86168
551.652	14.80199
551.851	14.46889
552.051	15.28951
552.25	15.21752
552.45	15.11106
552.649	15.33254
552.849	14.82749
553.048	15.41785
553.248	16.12524
553.447	14.74016
553.646	15.97221
553.846	16.90624
554.045	16.19808
554.244	14.44855
554.444	16.61744
554.643	14.87571
554.842	16.57753
555.042	17.40824
555.241	14.68493
555.44	14.3686
555.64	16.43636
555.839	17.09343
556.038	15.75132
556.237	15.0319
556.436	15.57444
556.636	15.98043
556.835	14.77516
557.034	16.70592
557.233	15.45209
557.432	14.21555
557.631	16.46468
557.83	15.48179
558.029	15.1801
558.228	14.86602
558.427	14.79388
558.626	15.67901
558.825	14.74478
559.024	15.65056
559.223	16.88174
559.422	15.13817
559.621	15.80179
559.82	13.3292
560.019	15.3525
560.218	15.37059
560.417	13.07342
560.616	14.87288
560.815	18.24152
561.014	14.2949
561.212	17.0375
561.411	15.7304
561.61	14.17547
561.809	15.18851
562.008	16.44457
562.206	15.31306
562.405	15.97987
562.604	15.07592
562.803	15.56999
563.001	15.12764
563.2	14.3648
563.399	15.79622
563.597	14.15511
563.796	15.26037
563.995	14.28419
564.193	16.0738
564.392	15.44858
564.59	17.43729
564.789	14.12913
564.988	15.00856
565.186	15.68232
565.385	15.44601
565.583	15.35048
565.782	15.60055
565.98	15.54292
566.179	15.6974
566.377	15.10443
566.575	15.73088
566.774	17.00389
566.972	16.18254
567.171	17.65496
567.369	16.75568
567.567	15.85583
567.766	15.91837
567.964	13.91416
568.162	15.95841
568.361	16.4868
568.559	15.2716
568.757	16.05768
568.956	15.54
569.154	15.8795
569.352	16.12404
569.55	15.3042
569.748	15.70745
569.947	15.07259
570.145	14.80843
570.343	14.83328
570.541	16.64201
570.739	14.62489
570.937	15.56491
571.135	16.36616
571.333	17.2081
571.532	17.23351
571.73	16.01338
571.928	16.90892
572.126	16.34652
572.324	15.12502
572.522	17.11514
572.72	18.17152
572.918	15.94779
573.116	16.19403
573.313	15.92474
573.511	16.15201
573.709	15.11857
573.907	16.77648
574.105	15.36149
574.303	14.46434
574.501	14.66465
574.699	16.28608
574.896	16.35247
575.094	16.22806
575.292	14.67104
575.49	16.61678
575.688	15.53346
575.885	16.81895
576.083	17.93442
576.281	16.50662
576.478	14.80185
576.676	16.11616
576.874	14.27873
577.071	15.71929
577.269	17.99623
577.467	16.11768
577.664	15.78104
577.862	16.60323
578.059	14.87196
578.257	16.9223
578.455	15.10564
578.652	15.97713
578.85	13.73648
579.047	15.63496
579.245	15.56263
579.442	15.5912
579.64	15.54949
579.837	14.03231
580.034	18.70087
580.232	15.76036
580.429	14.34587
580.627	16.307
580.824	16.94959
581.021	16.31869
581.219	15.48562
581.416	15.00645
581.613	17.21829
581.811	17.65749
582.008	14.91519
582.205	16.52263
582.402	16.07909
582.6	17.15489
582.797	15.90851
582.994	15.90101
583.191	16.42117
583.388	15.60686
583.586	16.31096
583.783	16.87469
583.98	15.11539
584.177	16.04111
584.374	12.64752
584.571	15.64546
584.768	15.39516
584.965	15.03726
585.162	16.06619
585.359	17.45718
585.556	15.45193
585.753	16.02628
585.95	14.05642
586.147	15.28198
586.344	16.58466
586.541	15.30433
586.738	14.42337
586.935	15.41001
587.132	14.83231
587.329	17.10637
587.526	15.5754
587.722	21.07534
587.919	14.13148
588.116	16.38326
588.313	17.21377
588.51	18.19345
588.706	15.07939
588.903	16.13143
589.1	16.71829
589.297	18.35684
589.493	16.0786
589.69	16.48606
589.887	15.61116
590.083	14.98975
590.28	15.67483
590.477	16.66404
590.673	16.90959
590.87	17.22881
591.067	15.7803
591.263	16.13756
591.46	16.5248
591.656	14.96318
591.853	17.19854
592.049	14.687
592.246	14.95729
592.442	17.23712
592.639	16.82231
592.835	14.93004
593.032	16.27301
593.228	14.34825
593.425	13.951
593.621	14.20954
593.817	16.31683
594.014	15.13348
594.21	15.86726
594.406	16.86746
594.603	16.54118
594.799	15.27831
594.995	13.46642
595.192	17.04507
595.388	15.74415
595.584	15.7599
595.78	14.81517
595.977	18.69055
596.173	17.8955
596.369	15.91288
596.565	15.25934
596.761	15.01775
596.957	17.87055
597.154	15.60781
597.35	15.726
597.546	15.65635
597.742	17.35794
597.938	16.27702
598.134	15.53429
598.33	16.61392
598.526	17.42401
598.722	16.10781
598.918	18.10882
599.114	16.19978
599.31	14.70707
599.506	15.73351
599.702	15.04466
599.898	16.0291
600.094	16.59905
600.29	16.61698
600.485	16.90343
600.681	14.91256
600.877	17.72934
601.073	15.98215
601.269	18.08294
601.465	17.53039
601.66	14.68695
601.856	13.45837
602.052	17.79804
602.248	15.66469
602.443	14.14107
602.639	15.04501
602.835	15.52112
603.03	14.98972
603.226	17.44638
603.422	14.93935
603.617	15.83203
603.813	15.92419
604.009	15.92227
604.204	17.91885
604.4	15.02751
604.595	17.38078
604.791	15.36987
604.986	16.47394
605.182	15.83641
605.377	15.84396
605.573	16.05236
605.768	16.32481
605.964	16.69434
606.159	16.75692
606.355	17.36645
606.55	15.71374
606.746	17.65113
606.941	15.89337
607.136	18.90663
607.332	19.85823
607.527	14.39944
607.722	16.56285
607.918	15.5332
608.113	15.52875
608.308	17.11237
608.503	16.83566
608.699	17.02025
608.894	17.11913
609.089	15.5969
609.284	16.93657
609.479	16.33491
609.675	17.35956
609.87	16.32725
610.065	17.28849
610.26	17.68638
610.455	17.51987
610.65	16.274
610.845	16.22006
611.04	17.79406
611.235	16.03802
611.43	15.79669
611.625	14.59207
611.82	18.61572
612.015	15.42281
612.21	18.4766
612.405	14.07228
612.6	18.18436
612.795	17.69417
612.99	16.59926
613.185	14.96028
613.38	15.36623
613.575	16.25025
613.77	20.43174
613.965	14.25279
614.159	14.75693
614.354	17.86595
614.549	17.53967
614.744	17.52991
614.938	14.83844
615.133	14.0724
615.328	18.16522
615.523	17.6919
615.717	20.09873
615.912	14.63328
616.107	16.38207
616.301	15.88088
616.496	15.50635
616.691	18.32305
616.885	17.3853
617.08	20.90939
617.274	17.521
617.469	19.5721
617.664	17.46831
617.858	15.5688
618.053	17.34288
618.247	15.9961
618.442	12.97367
618.636	18.67054
618.831	15.50493
619.025	15.5489
619.219	20.05743
619.414	11.99516
619.608	15.90746
619.803	15.66084
619.997	20.06158
620.191	18.33804
620.386	16.94037
620.58	16.49008
620.774	14.23342
620.969	13.86827
621.163	16.63433
621.357	14.66137
621.551	15.70282
621.746	16.55967
621.94	15.25597
622.134	21.50545
622.328	19.78188
622.522	13.69678
622.716	17.62373
622.911	17.87653
623.105	18.42336
623.299	17.37109
623.493	21.27893
623.687	15.06849
623.881	15.93694
624.075	17.11211
624.269	18.62773
624.463	13.42726
624.657	13.85617
624.851	17.65886
625.045	17.74691
625.239	18.43265
625.433	16.40014
625.627	19.05611
625.821	16.02882
626.015	15.85168
626.209	17.32821
626.403	15.12454
626.596	17.75407
626.79	18.30737
626.984	15.48569
627.178	17.8058
627.372	17.57661
627.565	17.48066
627.759	14.82913
627.953	15.33754
628.147	17.99172
628.34	17.69958
628.534	20.31904
628.728	16.81752
628.921	18.12949
629.115	17.73323
629.309	18.37086
629.502	18.4326
629.696	16.65299
629.89	16.75005
630.083	17.17175
630.277	17.10979
630.47	19.61422
630.664	16.19351
630.857	13.90534
631.051	17.93983
631.244	18.37669
631.438	18.4279
631.631	15.20043
631.825	18.95986
632.018	18.07785
632.212	19.68292
632.405	18.69626
632.598	15.42707
632.792	17.14439
632.985	12.92063
633.178	16.88287
633.372	16.7091
633.565	16.91144
633.758	19.89101
633.952	15.58593
634.145	15.55241
634.338	16.79774
634.531	15.74344
634.724	16.21219
634.918	16.75033
635.111	16.16913
635.304	15.82006
635.497	21.14379
635.69	17.5351
635.883	19.4922
636.077	14.64065
636.27	17.47099
636.463	17.16558
636.656	17.86535
636.849	16.05602
637.042	18.61152
637.235	19.75689
637.428	18.47792
637.621	18.69593
637.814	19.99503
638.007	19.8549
638.2	19.12038
638.393	20.56291
638.586	14.7963
638.778	16.04631
638.971	17.02104
639.164	20.1147
639.357	16.88393
639.55	20.31491
639.743	19.0862
639.935	17.85964
640.128	21.09392
640.321	18.14915
640.514	17.24198
640.707	21.61555
640.899	18.32699
641.092	13.81857
641.285	32.86117
641.477	13.10392
641.67	22.57158
641.863	19.35416
642.055	17.65083
642.248	16.60809
642.441	16.34872
642.633	18.91764
642.826	20.34266
643.018	19.8182
643.211	21.77863
643.403	21.14599
643.596	22.46532
643.788	21.09152
643.981	17.05703
644.173	19.94506
644.366	17.94111
644.558	13.69882
644.751	20.19897
644.943	14.96025
645.135	20.61999
645.328	21.64754
645.52	18.9399
645.712	20.84528
645.905	24.8976
646.097	15.63448
646.289	17.51837
646.482	22.47289
646.674	16.89992
646.866	20.30796
647.058	19.17041
647.251	15.67083
647.443	16.05325
647.635	18.62605
647.827	14.90794
648.019	16.71007
648.211	17.71056
648.404	17.83719
648.596	22.49409
648.788	18.44872
648.98	18.01755
649.172	19.15962
649.364	18.26625
649.556	14.29642
649.748	24.41072
649.94	15.91982
650.132	19.94741
650.324	15.63835
650.516	16.70176
650.708	21.21023
650.9	14.6443
651.092	17.19201
651.284	15.16772
651.476	15.86936
651.667	20.25394
651.859	20.37184
652.051	18.12682
652.243	17.75561
652.435	17.18672
652.627	19.98503
652.818	19.71926
653.01	14.7535
653.202	15.74448
653.394	16.63441
653.585	19.85698
653.777	28.3117
653.969	20.97448
654.16	20.70604
654.352	15.95495
654.544	16.83085
654.735	20.87982
654.927	18.8751
655.118	22.06521
655.31	19.40621
655.502	21.46702
655.693	16.78155
655.885	20.25784
656.076	21.74604
656.268	19.11356
656.459	22.4971
656.651	21.59535
656.842	16.99125
657.034	16.61439
657.225	21.02973
657.416	21.7512
657.608	21.84585
657.799	18.56121
657.99	21.91102
658.182	17.96551
658.373	17.80409
658.564	20.69854
658.756	19.10314
658.947	18.66648
659.138	16.89882
659.33	17.84496
659.521	17.12463
659.712	18.28284
659.903	18.42685
660.094	16.96906
660.286	15.57462
660.477	22.90239
660.668	20.07508
660.859	18.44258
661.05	15.18023
661.241	20.22539
661.432	19.3672
661.623	17.51998
661.814	17.36326
662.006	14.32574
662.197	19.45063
662.388	22.00743
662.579	18.43495
662.77	22.27619
662.96	26.8997
663.151	20.45336
663.342	14.58184
663.533	20.36946
663.724	19.53377
663.915	23.78607
664.106	18.44809
664.297	23.58521
664.488	20.35043
664.678	17.21373
664.869	21.41327
665.06	22.62729
665.251	20.37278
665.442	21.6466
665.632	16.06219
665.823	24.04183
666.014	11.14525
666.204	21.53864
666.395	23.1229
666.586	27.48473
666.776	21.03161
666.967	24.66873
667.158	19.56084
667.348	22.79135
667.539	16.10504
667.729	21.50521
667.92	17.29184
668.111	22.52555
668.301	20.81651
668.492	18.86504
668.682	20.26993
668.873	19.60498
669.063	17.11575
669.253	21.10062
669.444	21.91536
669.634	18.94281
669.825	24.86702
670.015	22.85201
670.206	16.91479
670.396	24.9171
670.586	18.98213
670.777	21.16508
670.967	13.95488
671.157	18.78211
671.347	16.72954
671.538	24.48624
671.728	21.47442
671.918	25.33503
672.108	21.9491
672.299	19.82024
672.489	21.2896
672.679	18.23787
672.869	21.52864
673.059	25.77253
673.249	21.93285
673.44	16.30817
673.63	19.48528
673.82	23.32213
674.01	17.72847
674.2	21.50596
674.39	29.56271
674.58	23.51948
674.77	19.64204
674.96	19.96687
675.15	33.04458
675.34	24.17622
675.53	20.58901
675.72	20.26896
675.91	15.74954
676.099	26.70394
676.289	27.84294
676.479	23.59033
676.669	19.87971
676.859	22.25246
677.049	18.52402
677.238	20.16045
677.428	26.29804
677.618	22.91088
677.808	25.21365
677.997	22.35515
678.187	17.27463
678.377	20.66691
678.567	19.23322
678.756	19.29894
678.946	20.18431
679.136	16.96409
679.325	18.48574
679.515	18.3563
679.704	17.2676
679.894	22.62455
680.084	21.83082
680.273	23.42191
680.463	19.53994
680.652	18.11097
680.842	20.72794
681.031	23.96721
681.221	18.25904
681.41	23.57298
681.6	20.51387
681.789	23.54683
681.978	25.64004
682.168	22.44067
682.357	21.3876
682.547	23.02508
682.736	21.41419
682.925	25.54499
683.115	24.90111
683.304	23.90901
683.493	21.81984
683.682	22.76548
683.872	22.80875
684.061	26.19117
684.25	24.00874
684.439	27.60877
684.629	24.48822
684.818	34.1306
685.007	21.64188
685.196	21.42555
685.385	27.65316
685.574	22.95393
685.763	23.87386
685.952	23.15567
686.142	18.36799
686.331	26.80138
686.52	16.99815
686.709	28.581
686.898	27.44245
687.087	25.31464
687.276	28.79122
687.465	27.19912
687.654	22.6637
687.842	28.28231
688.031	18.83146
688.22	27.73568
688.409	22.96298
688.598	22.62654
688.787	33.16957
688.976	23.3455
689.165	30.38133
689.353	21.45927
689.542	24.77485
689.731	26.66591
689.92	31.92974
690.108	26.55292
690.297	21.85483
690.486	23.68896
690.675	26.78113
690.863	31.46339
691.052	29.93363
691.241	25.10228
691.429	24.45013
691.618	30.11079
691.806	18.46813
691.995	21.81872
692.184	24.38853
692.372	22.26927
692.561	25.58578
692.749	24.27761
692.938	35.44468
693.126	26.22655
693.315	23.55553
693.503	26.70686
693.692	27.02973
693.88	29.87942
694.068	34.02888
694.257	24.79581
694.445	27.08016
694.634	16.26478
694.822	27.8199
695.01	30.25698
695.199	30.9244
695.387	30.58168
695.575	29.81099
695.763	24.10717
695.952	21.94227
696.14	19.99231
696.328	23.01816
696.516	25.65614
696.705	26.70749
696.893	26.60907
697.081	18.06935
697.269	27.04676
697.457	20.92402
697.645	20.87265
697.833	27.54479
698.021	22.0403
698.21	23.88559
698.398	24.44518
698.586	20.60021
698.774	20.87062
698.962	24.2274
699.15	21.23043
699.338	19.37765
699.526	26.7334
699.714	21.80947
699.901	22.34299
700.089	28.92871
700.277	20.91954
700.465	23.79297
700.653	28.5503
700.841	26.39887
701.029	21.38178
701.217	29.39205
701.404	25.1936
701.592	31.82607
701.78	33.61434
701.968	25.32155
702.155	25.02812
702.343	18.797
702.531	31.41275
702.718	26.98853
702.906	25.24077
703.094	22.22696
703.281	31.94532
703.469	26.4182
703.657	31.6308
703.844	39.80082
704.032	33.83486
704.219	23.31283
704.407	27.67472
704.595	31.44394
704.782	26.31804
704.97	24.48993
705.157	24.03362
705.345	33.251
705.532	40.53745
705.719	29.51763
705.907	32.86437
706.094	28.03852
706.282	34.55579
706.469	24.71746
706.656	27.96628
706.844	25.14636
707.031	30.51714
707.218	27.52235
707.406	35.36879
707.593	31.52432
707.78	31.83828
707.968	27.00617
708.155	23.21366
708.342	29.90717
708.529	29.68413
708.716	27.97948
708.904	34.74941
709.091	31.62748
709.278	22.962
709.465	37.63132
709.652	35.99419
709.839	34.65464
710.026	29.98711
710.213	21.10896
710.4	30.70164
710.587	32.53756
710.774	34.79936
710.961	33.10044
711.148	29.97461
711.335	35.24658
711.522	27.51304
711.709	31.58582
711.896	40.65892
712.083	33.33255
712.27	25.24361
712.457	29.71599
712.644	22.81885
712.831	39.44156
713.017	29.98448
713.204	32.70815
713.391	27.82995
713.578	36.38627
713.765	37.96593
713.951	32.99885
714.138	47.49105
714.325	33.47416
714.512	29.985
714.698	25.61631
714.885	39.52089
715.072	31.65166
715.258	32.10103
715.445	27.76512
715.631	37.77234
715.818	18.7608
716.005	27.24609
716.191	34.15652
716.378	28.00774
716.564	35.52055
716.751	25.20997
716.937	28.11199
717.124	36.58755
717.31	26.62154
717.497	40.468
717.683	28.28816
717.869	44.30931
718.056	28.92644
718.242	33.48795
718.429	29.55143
718.615	24.04927
718.801	31.37579
718.988	35.87924
719.174	34.69239
719.36	30.88934
719.547	37.42711
719.733	33.87099
719.919	33.95783
720.105	38.03348
720.291	31.4408
720.478	33.52026
720.664	30.77966
720.85	29.68971
721.036	50.08839
721.222	42.88972
721.408	31.83041
721.595	43.73836
721.781	43.44715
721.967	39.61124
722.153	45.42404
722.339	36.36038
722.525	35.46106
722.711	29.1323
722.897	26.23775
723.083	30.28788
723.269	39.74588
723.455	51.20057
723.641	55.49178
723.827	34.86383
724.012	35.99878
724.198	31.40414
724.384	42.98364
724.57	38.18266
724.756	24.97352
724.942	20.1634
725.127	40.01176
725.313	42.35499
725.499	40.90761
725.685	47.90501
725.87	36.10073
726.056	28.39786
726.242	44.19885
726.428	23.14124
726.613	40.14249
726.799	31.85727
726.985	27.56084
727.17	24.2914
727.356	46.9928
727.541	27.18139
727.727	32.22234
727.913	37.76184
728.098	30.68029
728.284	39.96367
728.469	26.30223
728.655	29.23497
728.84	40.66333
729.026	39.28897
729.211	39.67745
729.397	37.1912
729.582	38.42234
729.767	35.35875
729.953	36.94728
730.138	42.69126
730.323	21.85567
730.509	27.63146
730.694	46.47431
730.879	38.60372
731.065	34.72627
731.25	50.45568
731.435	38.97863
731.621	25.69593
731.806	31.69607
731.991	36.06966
732.176	24.41416
732.361	44.70716
732.547	39.13007
732.732	23.1357
732.917	52.41958
733.102	26.2208
733.287	26.92363
733.472	35.51896
733.657	35.70996
733.842	24.99364
734.027	31.6171
734.212	32.21687
734.397	30.32472
734.582	36.02124
734.767	41.7562
734.952	43.94506
735.137	17.25925
735.322	46.17892
735.507	36.22267
735.692	36.66674
735.877	50.66953
736.062	49.13848
736.247	38.61894
736.431	32.97153
736.616	42.91048
736.801	40.00526
736.986	35.58867
737.171	30.09027
737.355	25.89384
737.54	45.09764
737.725	35.891
737.909	57.26617
738.094	31.94115
738.279	44.07123
738.463	34.21857
738.648	42.11436
738.833	40.15968
739.017	51.11061
739.202	34.99379
739.386	34.49202
739.571	30.05542
739.756	44.05687
739.94	35.57418
740.125	43.90246
740.309	29.24853
740.494	43.32081
740.678	38.55908
740.863	41.16782
741.047	36.97191
741.231	49.87651
741.416	30.51679
741.6	49.86313
741.785	29.72149
741.969	46.51669
742.153	47.14888
742.338	18.49464
742.522	38.31193
742.706	43.41953
742.89	26.41164
743.075	40.07746
743.259	49.43604
743.443	47.01161
743.627	47.97411
743.812	59.95715
743.996	17.41882
744.18	37.48467
744.364	33.9737
744.548	60.85783
744.732	35.96857
744.916	44.65175
745.1	42.58888
745.285	35.50414
745.469	43.97754
745.653	52.34902
745.837	25.98289
746.021	60.60157
746.205	49.2873
746.389	39.91751
746.573	33.78614
746.757	53.89825
746.94	35.82696
747.124	50.71881
747.308	28.62889
747.492	47.03108
747.676	34.19912
747.86	59.85119
748.044	36.39953
748.227	23.67737
748.411	74.46373
748.595	41.39455
748.779	30.60693
748.963	43.46939
749.146	40.26149
749.33	31.16366
749.514	27.75244
749.697	48.9182
749.881	32.09825
750.065	27.59699
750.248	39.10395
750.432	61.76183
750.616	39.89946
750.799	25.64149
750.983	59.55502
751.166	65.86516
751.35	23.9791
751.533	46.08916
751.717	53.3583
751.9	52.92901
752.084	35.10198
752.267	26.87954
752.451	32.63555
752.634	41.8544
752.818	45.45786
753.001	47.67306
753.184	51.60328
753.368	42.67653
753.551	9.2153
753.734	32.44061
753.918	57.18248
754.101	31.69129
754.284	44.9388
754.467	35.97848
754.651	33.74604
754.834	33.55794
755.017	49.1902
755.2	50.16441
755.384	30.52717
755.567	48.66819
755.75	51.41799
755.933	35.63839
756.116	42.59033
756.299	34.51853
756.482	31.75366
756.665	44.59376
756.848	38.97476
757.032	45.40829
757.215	25.59935
757.398	31.6319
757.581	35.3382
757.764	68.65781
757.947	40.23163
758.129	51.10339
758.312	12.14369
758.495	40.23175
758.678	37.64679
758.861	36.52353
759.044	62.89292
759.227	32.55999
759.41	33.54214
759.592	49.40574
759.775	37.3347
759.958	50.62064
760.141	28.08605
760.324	64.85922
760.506	58.01325
760.689	47.96886
760.872	69.65594
761.054	45.77556
761.237	35.87696
761.42	45.20596
761.602	51.18813
761.785	46.21985
761.968	52.20126
762.15	58.47767
762.333	36.9906
762.515	42.24251
762.698	33.80598
762.88	47.32031
763.063	42.00674
763.245	47.71993
763.428	32.36746
763.61	35.56104
763.793	27.80389
763.975	43.09834
764.158	36.47871
764.34	35.33187
764.522	30.44847
764.705	37.99037
764.887	51.42396
765.069	24.94793
765.252	46.78218
765.434	46.20302
765.616	38.98083
765.799	32.859
765.981	47.76386
766.163	32.39987
766.345	52.55449
766.528	35.99995
766.71	19.60562
766.892	42.56564
767.074	55.96547
767.256	37.40112
767.438	59.68385
767.62	44.88402
767.802	64.87585
767.985	49.63383
768.167	63.53054
768.349	37.05412
768.531	47.33543
768.713	45.52303
768.895	52.72022
769.077	46.89147
769.259	75.10787
769.441	103.55384
769.623	53.69298
769.804	61.06041
769.986	61.41295
770.168	82.01883
770.35	88.07467
770.532	68.86795
770.714	68.51801
770.896	73.36966
771.077	26.85207
771.259	78.74184
771.441	63.16842
771.623	85.17658
771.804	103.34953
771.986	30.00014
772.168	49.86118
772.35	79.72403
772.531	107.62467
772.713	59.81692
772.894	86.91058
773.076	59.84461
773.258	54.99679
773.439	84.97887
773.621	93.32694
773.802	46.02305
773.984	58.95698
774.166	64.61987
774.347	93.70669
774.529	79.37323
774.71	26.94037
774.891	60.28436
775.073	56.69706
775.254	95.48318
775.436	54.95513
775.617	108.79091
775.799	49.47237
775.98	92.40721
776.161	94.06919
776.343	96.35765
776.524	61.54426
776.705	59.11853
776.886	30.42337
777.068	69.7906
777.249	121.01446
777.43	98.58866
777.611	44.84874
777.793	57.44929
777.974	96.51604
778.155	55.22278
778.336	46.57253
778.517	110.50631
778.698	48.16169
778.879	28.82029
779.061	13.35488
779.242	74.59333
779.423	68.24829
779.604	51.69985
779.785	58.52992
779.966	64.87159
780.147	82.79801
780.328	88.81769
780.509	117.41432
780.69	79.83801
780.871	54.17814
781.051	32.62277
781.232	65.99294
781.413	67.62742
781.594	56.97604
781.775	53.4962
781.956	49.49422
782.137	28.18391
782.317	47.29447
782.498	71.30445
782.679	72.24882
782.86	67.30832
783.04	51.19574
783.221	71.94343
783.402	102.78565
783.583	70.04597
783.763	83.08364
783.944	56.74993
784.124	33.94826
784.305	99.39847
784.486	76.24553
784.666	62.69926
784.847	30.4303
785.027	121.8435
785.208	48.10399
785.388	50.92468
785.569	54.62421
785.749	56.11897
785.93	53.12472
786.11	34.47419
786.291	73.42401
786.471	65.64145
786.652	75.20384
786.832	59.67798
787.012	66.82733
787.193	41.26519
787.373	67.78185
787.553	59.71821
787.734	69.37797
787.914	58.06922
788.094	77.80485
788.275	68.89569
788.455	56.85377
788.635	39.04435
788.815	64.75073
788.995	41.67594
789.176	37.51952
789.356	45.78337
789.536	55.14607
789.716	68.74301
789.896	46.42394
790.076	52.13158
790.256	67.48221
790.436	21.03311
790.616	42.62955
790.796	69.94734
790.976	55.33061
791.156	47.51949
791.336	77.14315
791.516	67.39588
791.696	59.09488
791.876	30.37442
792.056	61.07796
792.236	86.869
792.416	77.61721
792.596	73.10136
792.776	73.9384
792.956	75.21352
793.135	96.86887
793.315	40.12816
793.495	89.61298
793.675	80.11154
793.854	82.85796
794.034	82.76516
794.214	40.74627
794.394	79.61291
794.573	85.32206
794.753	66.15525
794.933	46.8858
795.112	69.46313
795.292	82.98874
795.472	98.3686
795.651	45.4311
795.831	62.91068
796.01	56.13641
796.19	53.80539
796.369	59.19872
796.549	73.66553
796.728	56.09461
796.908	40.00865
797.087	40.10218
797.267	56.45811
797.446	37.31694
797.626	74.74042
797.805	71.52886
797.984	47.9139
798.164	76.66864
798.343	43.68279
798.522	70.7655
798.702	63.34837
798.881	36.53875
799.06	53.62086
799.239	26.32608
799.419	42.65893
799.598	98.80656
799.777	69.83495
799.956	84.48882
800.136	54.01385
800.315	43.51785
800.494	72.37131
800.673	84.58306
800.852	79.43802
801.031	85.30348
801.21	74.35375
801.389	52.47685
801.568	64.72513
801.747	99.15618
801.926	63.77723
802.105	98.89453
802.284	54.92407
802.463	95.58127
802.642	67.88727
802.821	68.54083
803	88.16563
803.179	79.56859
803.358	92.80021
803.537	50.7871
803.716	69.8076
803.895	48.95694
804.073	62.79578
804.252	47.38025
804.431	70.54223
804.61	62.43361
804.789	90.04227
804.967	53.39692
805.146	53.33975
805.325	110.7707
805.503	71.38652
805.682	38.18859
805.861	130.96588
806.039	94.23607
806.218	54.44811
806.397	74.69259
806.575	66.333
806.754	70.27815
806.932	45.7409
807.111	95.42069
807.289	87.01689
807.468	69.45676
807.646	89.40549
807.825	78.69294
808.003	76.57298
808.182	90.51955
808.36	62.4897
808.539	45.0308
808.717	100.68663
808.895	43.13401
809.074	69.33983
809.252	61.26151
809.43	92.6761
809.609	96.80893
809.787	114.0177
809.965	61.41907
810.144	64.95588
810.322	65.67784
810.5	79.31711
810.678	65.72632
810.856	111.87486
811.035	98.8238
811.213	92.41747
811.391	86.52169
811.569	70.58304
811.747	150.14401
811.925	105.17592
812.103	53.70763
812.281	68.77001
812.459	120.18597
812.637	111.9451
812.816	95.18507
812.994	121.2714
813.171	99.59371
813.349	90.11669
813.527	105.61968
813.705	96.54711
813.883	121.58148
814.061	100.60188
814.239	120.77831
814.417	128.70219
814.595	91.46922
814.773	73.78923
814.95	75.23425
815.128	84.55432
815.306	73.4607
815.484	71.51445
815.662	51.53721
815.839	43.68702
816.017	61.26045
816.195	100.04408
816.372	65.3965
816.55	102.50702
816.728	114.37228
816.905	70.2183
817.083	112.74658
817.261	78.78406
817.438	147.17465
817.616	131.2353
817.793	55.95923
817.971	94.37433
818.148	87.31096
818.326	116.99725
818.503	82.48904
818.681	109.24698
818.858	61.82502
819.036	70.9161
819.213	76.03053
819.391	56.92762
819.568	51.91094
819.745	48.93637
819.923	88.86083
820.1	62.62385
820.277	53.53466
820.455	62.205
820.632	63.28394
820.809	68.25138
820.986	44.22963
821.164	38.28673
821.341	33.17521
821.518	46.23973
821.695	36.0247
821.872	35.86151
822.05	31.6356
822.227	28.06046
822.404	29.23204
822.581	32.2542
822.758	28.67915
822.935	29.0916
823.112	32.34067
823.289	28.18431
823.466	32.12082
823.643	30.71709
823.82	34.21551
823.997	30.94594
824.174	34.99721
824.351	42.56503
824.528	41.49819
824.705	37.96229
824.882	40.63856
825.059	50.60905
825.236	37.85162
825.412	38.92712
825.589	47.63651
825.766	64.41103
825.943	41.67903
826.12	46.47722
826.296	35.11975
826.473	43.69435
826.65	44.31652
826.827	53.4197
827.003	37.61045
827.18	41.34203
827.357	46.84246
827.533	38.23766
827.71	26.25819
827.887	36.30342
828.063	41.84173
828.24	37.15111
828.416	46.45635
828.593	39.23089
828.769	54.85938
828.946	55.08792
829.122	58.55175
829.299	58.33429
829.475	30.68336
829.652	53.95379
829.828	87.60385
830.005	58.49403
830.181	79.9399
830.357	52.77905
830.534	79.21511
830.71	66.85043
830.886	81.56049
831.063	72.41866
831.239	100.44244
831.415	41.82467
831.592	107.0418
831.768	61.2581
831.944	53.5566
832.12	110.79264
832.296	101.25169
832.473	84.26534
832.649	55.77115
832.825	79.80862
833.001	44.88583
833.177	69.54765
833.353	63.25198
833.529	37.07562
833.705	53.78555
833.881	42.23383
834.058	39.08626
834.234	40.56783
834.41	43.54103
834.586	33.35773
834.761	40.31664
834.937	43.50087
835.113	45.2486
835.289	39.7392
835.465	48.62506
835.641	41.35489
835.817	45.48424
835.993	81.3179
836.169	43.34878
836.344	59.30073
836.52	70.87345
836.696	78.51662
836.872	47.96276
837.048	148.14774
837.223	62.75339
837.399	131.89515
837.575	109.86795
837.75	94.88224
837.926	131.94345
838.102	211.57493
838.277	169.42404
838.453	222.41438
838.628	218.92986
838.804	66.8156
838.98	204.49093
839.155	100.32407
839.331	141.0659
839.506	93.74202
839.682	89.20085
839.857	112.91127
840.033	137.15684
840.208	62.29137
840.384	38.63423
840.559	70.55488
840.734	107.07584
840.91	147.16257
841.085	92.42117
841.26	102.16211
841.436	83.82397
841.611	77.68562
841.786	127.07726
841.962	170.95235
842.137	119.30653
842.312	70.73405
842.487	90.81675
842.663	83.97086
842.838	102.66078
843.013	310.88838
843.188	192.58827
843.363	129.69649
843.538	288.72269
843.714	352.80018
843.889	301.51633
844.064	295.15671
844.239	234.8509
844.414	456.16834
844.589	265.61216
844.764	394.62025
844.939	390.96082
845.114	412.52222
845.289	443.09703
845.464	500.71593
845.639	374.25992
845.814	214.96077
845.989	322.10999
846.163	230.11275
846.338	327.85863
846.513	425.31502
846.688	256.02915
846.863	329.89788
847.038	239.91187
847.212	284.52724
847.387	340.50456
847.562	300.58837
847.737	461.21161
847.911	216.32719
848.086	182.57854
848.261	402.40147
848.435	273.20106
848.61	379.94373
848.785	206.32867
848.959	408.3334
849.134	490.52781
849.308	652.01327
849.483	320.50138
849.658	543.22836
849.832	256.18302
850.007	212.53028
850.181	662.87438
850.356	304.32526
850.53	796.32177
850.705	342.54747
850.879	143.71084
851.053	307.68958
851.228	314.14731
851.402	489.35808
851.577	472.67466
851.751	590.89273
851.925	347.83011
852.099	151.86243
852.274	249.00719
852.448	287.5813
852.622	464.10393
852.797	337.01488
852.971	337.61615
853.145	408.58028
853.319	733.33769
853.493	639.29002
853.668	495.15084
853.842	760.33042
854.016	503.898
854.19	673.30463
854.364	349.2567
854.538	359.25229
854.712	728.52512
854.886	406.17755
855.06	304.75994
855.234	115.33102
855.408	628.35068
855.582	415.58156
855.756	612.2217
855.93	578.07886
856.104	587.8038
856.278	544.79026
856.452	362.57717
856.626	405.72385
856.8	909.31104
856.973	393.53699
857.147	451.08594
857.321	467.19991
857.495	524.83919
857.669	324.57468
857.842	475.1849
858.016	587.9349
858.19	226.39456
858.364	754.46669
858.537	380.11139
858.711	488.58708
858.885	401.41875
859.058	263.94422
859.232	178.67104
859.405	142.88556
859.579	490.17955
859.753	570.97764
859.926	227.57962
860.1	239.35526
860.273	390.68135
860.447	459.07924
860.62	388.05507
860.794	599.90431
860.967	375.82824
861.141	488.27838
861.314	755.38563
861.487	490.91003
861.661	487.48654
861.834	524.34894
862.008	660.56477
862.181	446.02816
862.354	513.07078
862.528	505.61525
862.701	314.58207
862.874	189.09975
863.047	339.85615
863.221	278.39607
863.394	188.991
863.567	412.61702
863.74	147.66859
863.913	486.66506
864.087	493.54091
864.26	464.5808
864.433	361.10815
864.606	607.53248
864.779	352.49485
864.952	161.58692
865.125	391.16004
865.298	308.82836
865.471	325.52186
865.644	762.18781
865.817	520.25951
865.99	495.10752
866.163	473.24578
866.336	243.36272
866.509	338.97532
866.682	568.62358
866.855	748.4409
867.028	203.58155
867.2	398.29148
867.373	96.71103
867.546	394.99513
867.719	681.32661
867.892	447.13335
868.064	277.1474
868.237	352.74799
868.41	386.37186
868.583	177.04566
868.755	233.67278
868.928	441.83908
869.101	818.17747
869.273	556.32599
869.446	524.63316
869.619	574.9934
869.791	374.50348
869.964	504.12118
870.136	844.58588
870.309	345.39611
870.481	427.36543
870.654	211.59739
870.826	311.5745
870.999	216.25196
871.171	416.75137
871.344	253.84695
871.516	311.05442
871.689	251.95504
871.861	338.67796
872.033	267.53891
872.206	273.22433
872.378	320.33708
872.55	353.46186
872.723	205.78885
872.895	318.80947
873.067	459.48568
873.24	373.8381
873.412	327.99625
873.584	374.87152
873.756	335.67331
873.928	474.44503
874.101	361.10178
874.273	420.05886
874.445	121.85011
874.617	250.23826
874.789	292.3485
874.961	335.22336
875.133	359.71198
875.305	388.9749
875.477	300.0622
875.649	164.92472
875.821	210.13453
875.993	611.81723
876.165	294.18484
876.337	388.49835
876.509	311.47947
876.681	391.05937
876.853	352.34285
877.025	356.28252
877.197	233.54231
877.369	160.08223
877.541	339.36201
877.712	84.22871
877.884	177.23143
878.056	341.3443
878.228	179.75641
878.4	393.63276
878.571	167.2272
878.743	119.30942
878.915	274.31219
879.086	133.39361
879.258	185.76163
879.43	182.79044
879.601	147.6528
879.773	145.71937
879.945	39.32459
880.116	57.60175
880.288	36.37159
880.459	40.30173
880.631	36.41445
880.802	41.44266
880.974	38.82619
881.145	29.22311
881.317	39.1469
881.488	31.61606
881.66	33.17006
881.831	31.27088
882.002	40.02379
882.174	31.33413
882.345	37.3216
882.517	24.39551
882.688	42.7466
882.859	34.89592
883.03	53.67476
883.202	49.00858
883.373	41.63292
883.544	41.86053
883.715	68.51542
883.887	58.58514
884.058	49.95113
884.229	73.14157
884.4	75.13863
884.571	79.96109
884.742	67.03514
884.914	73.63441
885.085	115.51607
885.256	160.33811
885.427	125.81295
885.598	165.96898
885.769	152.38543
885.94	156.13144
886.111	96.36892
886.282	184.21057
886.453	164.01534
886.624	105.1245
886.795	203.55739
886.966	172.70554
887.136	222.27461
887.307	145.86722
887.478	315.93852
887.649	264.59694
887.82	277.88707
887.991	224.57366
888.161	346.76715
888.332	365.31541
888.503	144.86511
888.674	367.43754
888.844	542.68587
889.015	324.67499
889.186	221.08197
889.356	524.35066
889.527	208.56337
889.698	680.80792
889.868	263.35554
890.039	407.93821
890.209	298.34776
890.38	404.16204
890.551	366.90318
890.721	412.08565
890.892	465.20457
891.062	437.34818
891.233	529.46334
891.403	471.04034
891.574	308.47352
891.744	266.86741
891.914	327.40479
892.085	396.12508
892.255	119.5757
892.425	425.99236
892.596	313.02314
892.766	386.7477
892.936	458.0192
893.107	407.39127
893.277	178.74039
893.447	188.0113
893.618	107.04161
893.788	202.51474
893.958	118.45962
894.128	107.6584
894.298	121.26064
894.468	155.42536
894.639	75.16957
894.809	44.09563
894.979	74.11261
895.149	92.1588
895.319	77.77932
895.489	103.27748
895.659	141.28497
895.829	91.74398
895.999	90.33114
896.169	79.25092
896.339	102.90244
896.509	192.32405
896.679	205.90841
896.849	226.1452
897.019	283.36221
897.189	240.15008
897.358	213.34323
897.528	324.2998
897.698	210.88894
897.868	319.43668
898.038	642.77349
898.208	636.48594
898.377	196.17436
898.547	983.34789
898.717	1451.73992
898.886	418.05481
899.056	635.73214
899.226	1458.91973
899.395	771.84982
899.565	1352.2943
899.735	811.40858
899.904	926.26381
900.074	1046.96472
900.244	261.99321
900.413	1281.02188
900.583	355.70644
900.752	1278.13042
900.922	1073.32135
901.091	152.45752
901.261	1617.43819
901.43	520.22717
901.599	2491.46093
901.769	1423.5314
901.938	1058.01463
902.108	1644.50317
902.277	818.30185
902.446	409.75526
902.616	391.26399
902.785	554.2354
902.954	672.41629
903.124	531.17357
903.293	301.3778
903.462	140.00101
903.631	200.20379
903.801	151.05594
903.97	72.70025
904.139	120.94759
904.308	92.62399
904.477	78.04396
904.646	44.42039
904.816	65.44894
904.985	104.28897
905.154	150.67844
