Data from WindowProjectSample_Transmission__26__00026__003869328598151811.txt Node

Date: Mon May 05 17:26:57 EDT 2025
User: jessi
Spectrometer: SR400872
Trigger mode: 0
Integration Time (sec): 5.000010E-1
Scans to average: 20
Electric dark correction enabled: true
Nonlinearity correction enabled: true
Boxcar width: 0
XAxis mode: Wavelengths
Number of Pixels in Spectrum: 3648
>>>>>Begin Spectral Data<<<<<
184.909	20251.2129
185.132	-5022.55362
185.355	-3017.04386
185.578	-17590.27685
185.801	1951.10225
186.024	10157.6859
186.247	-1592.5456
186.47	1096.68421
186.693	280.35737
186.916	227.74288
187.139	-3578.33353
187.362	3199.49461
187.585	4079.78072
187.808	3691.61742
188.031	-13.53673
188.254	-49034.60949
188.476	-681.04074
188.699	6076.1539
188.922	634.20324
189.145	-14473.22311
189.368	-582.95947
189.591	-1367.73328
189.813	3103.4664
190.036	-50603.37337
190.259	-835.51446
190.482	-4087.16678
190.705	6986.49451
190.927	-2473.36763
191.15	13302.34736
191.373	3164.24382
191.595	-8514.9422
191.818	-3977.75271
192.041	-7600.94145
192.263	-3335.94619
192.486	-828.95865
192.709	-3869.52248
192.931	7349.82272
193.154	-27181.49009
193.377	-2728.49825
193.599	-2251.37026
193.822	-8906.77556
194.044	-1990.71828
194.267	1120.52026
194.489	290.5171
194.712	-42377.83761
194.934	-31169.87223
195.157	1118.65356
195.379	1396.17086
195.602	-6773.19133
195.824	-1246.87283
196.047	-8684.91398
196.269	2640.29471
196.492	-6597.27236
196.714	26919.55828
196.936	-8075.68652
197.159	-1134.35162
197.381	1109.53628
197.604	513.02125
197.826	12004.67842
198.048	-10709.53991
198.271	-2779.63688
198.493	7497.62321
198.715	2349.13778
198.938	-388.67691
199.16	7033.87503
199.382	-98005.70944
199.604	2198.70988
199.827	-1070.17147
200.049	-2936.03656
200.271	14661.93502
200.493	1179.4285
200.715	-35787.15937
200.938	-5869.85041
201.16	-4010.82061
201.382	19334.05672
201.604	2248.06763
201.826	2271.72198
202.048	-1839.13795
202.27	-1760.34113
202.492	-36105.48641
202.715	2798.38327
202.937	-4305.79234
203.159	-5962.04402
203.381	1445.51519
203.603	6236.69932
203.825	6219.40819
204.047	2134.2972
204.269	-2841.29536
204.491	2106.95095
204.713	5714.87019
204.935	-471879.27887
205.156	1214.83598
205.378	-2863.20631
205.6	1558.09713
205.822	148208.56291
206.044	-858.58262
206.266	1500.72179
206.488	4769.63451
206.71	-5177.60993
206.932	1117.15485
207.153	12093.68051
207.375	-7091.27433
207.597	-36868.19227
207.819	-2727.7295
208.041	2342.67081
208.262	529.69978
208.484	701.28397
208.706	-756.59187
208.927	-854.04615
209.149	486.14397
209.371	-2768.93042
209.593	-201.36956
209.814	-766.94339
210.036	489.16353
210.258	-630.18941
210.479	1623.61351
210.701	1646.23507
210.922	3193.40761
211.144	-3736.74498
211.366	2023.46963
211.587	7851.58571
211.809	-7792.40689
212.03	2313.11821
212.252	440.55222
212.473	2042.79001
212.695	-6426.4315
212.916	2820.86919
213.138	-540.2264
213.359	3560.80179
213.581	4805.51693
213.802	-810.46677
214.024	1113.94827
214.245	1941.40281
214.466	3170.25117
214.688	-3022.91249
214.909	-1217.35561
215.131	-1707.23154
215.352	-2988.39959
215.573	14349.26451
215.795	4991.39681
216.016	5168.60637
216.237	817.81198
216.459	3261.42547
216.68	1692.56468
216.901	4834.11587
217.122	-2912.76264
217.344	-11500.55582
217.565	3389.61772
217.786	8781.07979
218.007	16069.48848
218.228	-761.55146
218.45	5666.70244
218.671	736.99157
218.892	35788.04661
219.113	1489.14752
219.334	-339.0837
219.555	8864.91516
219.776	3016.9441
219.997	21650.37669
220.219	2635.06963
220.44	-10003.84472
220.661	448.84483
220.882	1483.60557
221.103	-1100.32586
221.324	2181.2064
221.545	2275.6933
221.766	-8736.82568
221.987	845.85783
222.208	1654.5378
222.429	4256.23937
222.65	261.63213
222.87	17909.09426
223.091	691.83988
223.312	597.06113
223.533	1319.07209
223.754	1473.23778
223.975	1362.64907
224.196	1933.57724
224.417	1277.62401
224.637	551.49353
224.858	95.96607
225.079	1086.46075
225.3	634.19493
225.521	3727.84125
225.741	435.86773
225.962	491.09223
226.183	133.81112
226.404	668.6063
226.624	419.72787
226.845	647.73734
227.066	387.602
227.286	243.5649
227.507	117.50605
227.728	108.87586
227.948	233.5352
228.169	72.44998
228.389	81.81686
228.61	46.02652
228.831	58.5893
229.051	1.69501
229.272	37.64058
229.492	55.45723
229.713	13.02569
229.933	37.47653
230.154	32.36743
230.374	51.91363
230.595	35.20804
230.815	23.41369
231.036	37.04271
231.256	-10.44987
231.477	67.73674
231.697	36.37257
231.917	37.14205
232.138	53.16396
232.358	108.55118
232.579	99.14004
232.799	16.09021
233.019	95.6192
233.24	113.82969
233.46	34.79124
233.68	58.82514
233.901	42.54967
234.121	24.93615
234.341	11.99708
234.561	-0.47888
234.782	20.62729
235.002	62.59307
235.222	-2.82349
235.442	61.82844
235.662	30.94645
235.883	60.93812
236.103	48.90588
236.323	34.89976
236.543	25.75676
236.763	37.85148
236.983	42.11431
237.203	39.4098
237.423	57.72756
237.643	83.07631
237.864	69.47603
238.084	19.98959
238.304	25.32989
238.524	43.20289
238.744	37.67674
238.964	71.79103
239.184	57.42009
239.404	62.15356
239.624	35.46486
239.843	58.06102
240.063	34.9177
240.283	20.56612
240.503	24.67862
240.723	23.89177
240.943	13.18435
241.163	18.71357
241.383	13.96824
241.603	7.16005
241.822	9.06853
242.042	5.81344
242.262	7.87123
242.482	9.24305
242.702	10.29556
242.921	3.01685
243.141	6.1829
243.361	6.39608
243.581	8.95973
243.8	6.9805
244.02	5.2592
244.24	9.30174
244.459	9.03805
244.679	17.6511
244.899	11.66701
245.118	12.429
245.338	11.17592
245.558	13.22419
245.777	8.10844
245.997	9.91145
246.216	10.17356
246.436	5.95384
246.655	4.54446
246.875	3.0268
247.094	5.9468
247.314	2.12976
247.533	3.60867
247.753	4.2593
247.972	3.09819
248.192	1.13089
248.411	1.74627
248.631	3.47455
248.85	4.44116
249.07	3.69191
249.289	5.62136
249.508	4.9524
249.728	6.51362
249.947	6.86524
250.166	8.56082
250.386	4.27159
250.605	5.87689
250.824	10.21227
251.044	7.12913
251.263	27.92458
251.482	14.4462
251.701	11.05247
251.921	0.06167
252.14	3.19804
252.359	3.90635
252.578	9.6514
252.798	3.08815
253.017	8.67831
253.236	3.75152
253.455	5.55834
253.674	9.80641
253.893	4.59738
254.112	7.81299
254.331	10.4994
254.551	8.75806
254.77	3.27821
254.989	12.70299
255.208	10.32846
255.427	15.14174
255.646	10.27017
255.865	21.31054
256.084	8.74134
256.303	9.59554
256.522	12.93558
256.741	3.01105
256.96	2.63944
257.179	7.77449
257.397	10.38405
257.616	5.20831
257.835	6.10516
258.054	14.93793
258.273	10.48498
258.492	10.80882
258.711	6.29185
258.93	3.23092
259.148	4.58481
259.367	4.50138
259.586	5.39194
259.805	2.33126
260.023	5.09345
260.242	3.905
260.461	2.55054
260.68	1.35453
260.898	4.31553
261.117	1.31077
261.336	1.02954
261.554	3.25344
261.773	3.28508
261.992	0.84066
262.21	3.11338
262.429	3.50851
262.648	7.23594
262.866	7.97922
263.085	5.45293
263.303	4.59577
263.522	8.69145
263.74	8.57844
263.959	14.72127
264.178	6.71905
264.396	6.43646
264.615	4.69393
264.833	10.4019
265.051	8.52114
265.27	10.37896
265.488	10.79193
265.707	5.96841
265.925	10.49118
266.144	4.72092
266.362	5.45286
266.58	5.04454
266.799	4.87458
267.017	6.02012
267.235	4.96979
267.454	3.30213
267.672	1.80371
267.89	4.05567
268.109	4.28487
268.327	4.37899
268.545	0.92412
268.763	3.84764
268.982	1.4082
269.2	4.16286
269.418	2.74988
269.636	1.76905
269.854	4.88758
270.073	2.96515
270.291	1.8443
270.509	1.6617
270.727	4.18397
270.945	7.03346
271.163	6.91115
271.381	1.43478
271.599	3.06119
271.817	5.34233
272.036	1.68688
272.254	2.99665
272.472	2.37462
272.69	2.42872
272.908	2.21284
273.126	4.33622
273.344	5.15136
273.562	1.82787
273.779	2.49303
273.997	3.59306
274.215	4.26202
274.433	2.85893
274.651	4.26801
274.869	4.58012
275.087	2.81939
275.305	4.09538
275.523	2.36453
275.74	2.59204
275.958	5.37141
276.176	8.00018
276.394	2.36222
276.612	3.09106
276.829	3.48237
277.047	2.60196
277.265	2.81515
277.483	3.31467
277.7	4.19129
277.918	3.57122
278.136	6.02504
278.353	2.80564
278.571	1.67332
278.789	4.18601
279.006	0.91365
279.224	2.87905
279.442	4.92708
279.659	3.20134
279.877	2.41041
280.094	5.49206
280.312	1.00884
280.529	3.31495
280.747	1.00787
280.964	2.5728
281.182	5.69927
281.399	2.58681
281.617	3.64175
281.834	2.47588
282.052	1.83077
282.269	3.05887
282.487	2.40189
282.704	1.90263
282.921	2.1951
283.139	3.34702
283.356	3.73226
283.574	3.67518
283.791	1.7761
284.008	5.33904
284.226	2.74908
284.443	3.27999
284.66	4.29339
284.877	3.44439
285.095	2.01754
285.312	1.61033
285.529	0.94643
285.746	0.76374
285.964	1.97797
286.181	1.36667
286.398	1.88876
286.615	2.56022
286.832	2.50853
287.05	0.5919
287.267	1.77935
287.484	1.78106
287.701	2.46541
287.918	2.58231
288.135	2.59506
288.352	1.26508
288.569	1.43058
288.786	2.43632
289.003	1.96099
289.22	2.98354
289.437	1.64078
289.654	2.89339
289.871	2.98348
290.088	2.81933
290.305	2.25653
290.522	1.70244
290.739	1.86855
290.956	2.96147
291.173	3.43928
291.39	3.36863
291.607	2.28869
291.824	1.64702
292.04	1.20339
292.257	2.82052
292.474	3.12531
292.691	1.69148
292.908	0.86222
293.125	1.70643
293.341	1.16836
293.558	4.89561
293.775	1.85126
293.992	1.93049
294.208	0.91148
294.425	1.23399
294.642	1.86943
294.858	2.61294
295.075	0.77172
295.292	1.9314
295.508	2.32671
295.725	3.90434
295.942	1.67232
296.158	1.30153
296.375	2.11214
296.591	1.55599
296.808	1.76767
297.024	1.9867
297.241	2.1908
297.458	2.4905
297.674	0.3172
297.891	1.905
298.107	1.56655
298.323	1.16063
298.54	3.17247
298.756	1.35861
298.973	0.80485
299.189	3.25894
299.406	1.44554
299.622	2.94453
299.838	2.81007
300.055	2.72339
300.271	0.85112
300.487	1.25897
300.704	1.52855
300.92	0.92185
301.136	4.4304
301.353	2.81038
301.569	2.13748
301.785	2.4269
302.001	2.94746
302.218	2.4541
302.434	2.66857
302.65	1.01966
302.866	1.6642
303.083	4.14608
303.299	4.02676
303.515	2.32224
303.731	2.43697
303.947	1.01226
304.163	1.64164
304.379	2.4176
304.595	2.611
304.812	1.59687
305.028	1.67156
305.244	2.03481
305.46	2.87479
305.676	3.05026
305.892	3.40151
306.108	2.7494
306.324	1.85947
306.54	3.92695
306.756	2.77611
306.972	2.7694
307.187	2.2024
307.403	3.75443
307.619	1.7558
307.835	3.43526
308.051	3.64295
308.267	1.33592
308.483	3.31779
308.699	2.78201
308.914	2.29749
309.13	2.1225
309.346	1.04931
309.562	1.40544
309.778	1.11797
309.993	2.81361
310.209	2.40789
310.425	1.3704
310.641	2.11531
310.856	1.47969
311.072	1.34542
311.288	2.18132
311.503	2.38165
311.719	0.77644
311.935	0.74429
312.15	2.67892
312.366	2.21365
312.581	2.63605
312.797	2.27982
313.013	3.04238
313.228	1.75517
313.444	2.16472
313.659	1.69497
313.875	2.73354
314.09	2.27629
314.306	3.54718
314.521	2.98643
314.737	3.03145
314.952	2.27876
315.168	2.29186
315.383	2.64051
315.599	2.01434
315.814	2.05061
316.029	2.96997
316.245	1.27285
316.46	0.83165
316.675	3.31662
316.891	3.83615
317.106	4.93387
317.321	2.61562
317.537	2.99892
317.752	3.16392
317.967	3.2271
318.183	1.48468
318.398	1.92149
318.613	3.07962
318.828	3.64966
319.043	3.05869
319.259	2.1784
319.474	2.52671
319.689	3.28639
319.904	0.94433
320.119	3.05686
320.334	2.60755
320.549	2.18797
320.765	3.31499
320.98	2.60624
321.195	2.8381
321.41	2.29896
321.625	2.83724
321.84	3.91981
322.055	3.94065
322.27	1.71881
322.485	1.40715
322.7	2.54609
322.915	3.2083
323.13	1.68463
323.345	3.81887
323.56	2.8146
323.775	3.03309
323.989	2.81558
324.204	2.65839
324.419	3.37069
324.634	1.40995
324.849	2.13357
325.064	5.41384
325.279	3.285
325.493	2.77265
325.708	3.19711
325.923	1.65136
326.138	1.96373
326.352	3.89937
326.567	3.39027
326.782	2.06312
326.997	1.97214
327.211	2.8707
327.426	2.67336
327.641	2.05519
327.855	0.99771
328.07	2.79619
328.285	3.95239
328.499	2.06027
328.714	2.59716
328.928	2.99959
329.143	2.3879
329.358	3.28991
329.572	3.28198
329.787	3.59737
330.001	4.78078
330.216	1.40544
330.43	4.12287
330.645	3.8665
330.859	3.11383
331.074	1.74212
331.288	2.53037
331.503	3.6198
331.717	1.54955
331.931	2.71583
332.146	2.69119
332.36	4.1246
332.575	2.79458
332.789	2.77502
333.003	2.55958
333.218	2.91021
333.432	1.94008
333.646	3.31082
333.86	4.04348
334.075	3.86984
334.289	2.06318
334.503	1.52137
334.717	2.91225
334.932	2.97376
335.146	3.40911
335.36	2.05846
335.574	3.07717
335.788	2.7171
336.003	3.38198
336.217	3.05075
336.431	2.97117
336.645	2.05547
336.859	1.41964
337.073	2.38941
337.287	2.75304
337.501	1.53868
337.715	2.72234
337.929	3.21747
338.143	1.47469
338.357	2.34479
338.571	1.79279
338.785	2.9703
338.999	2.09951
339.213	1.97148
339.427	1.32855
339.641	3.68838
339.855	2.21512
340.069	2.11929
340.283	3.22922
340.497	4.03782
340.711	2.8534
340.924	2.42944
341.138	1.71264
341.352	1.42378
341.566	2.61933
341.78	1.25066
341.993	2.17179
342.207	1.7649
342.421	2.61219
342.635	2.30299
342.848	2.13855
343.062	0.76883
343.276	1.88232
343.49	4.13183
343.703	1.9501
343.917	3.32863
344.131	3.29822
344.344	1.78325
344.558	2.11449
344.771	1.43594
344.985	3.78356
345.199	3.73607
345.412	2.63601
345.626	2.74767
345.839	1.0944
346.053	1.5213
346.266	1.58922
346.48	2.97792
346.693	2.73554
346.907	2.65845
347.12	1.74415
347.334	2.65645
347.547	2.65106
347.76	2.33742
347.974	3.42334
348.187	2.6299
348.401	2.1829
348.614	1.86165
348.827	2.11514
349.041	2.8318
349.254	1.02909
349.467	2.17665
349.681	1.50097
349.894	1.81749
350.107	3.42743
350.32	3.79531
350.534	1.24904
350.747	2.1379
350.96	1.71264
351.173	1.84624
351.386	2.15275
351.6	2.00861
351.813	1.91937
352.026	2.36232
352.239	1.33254
352.452	2.07515
352.665	3.23164
352.878	2.34481
353.092	3.83454
353.305	2.97296
353.518	2.59522
353.731	1.67777
353.944	3.26201
354.157	2.03853
354.37	1.81248
354.583	1.61783
354.796	1.21328
355.009	3.0939
355.222	2.67727
355.435	2.39668
355.647	3.08901
355.86	1.73471
356.073	2.41756
356.286	2.04094
356.499	2.96777
356.712	2.74102
356.925	2.81235
357.138	2.93975
357.35	1.69864
357.563	2.08173
357.776	2.43002
357.989	2.20526
358.201	2.77785
358.414	2.58632
358.627	3.33767
358.84	2.25105
359.052	1.4667
359.265	1.77751
359.478	3.11079
359.69	0.59602
359.903	2.90533
360.116	3.10324
360.328	1.21351
360.541	2.93049
360.753	1.72846
360.966	2.0186
361.179	2.13528
361.391	1.98847
361.604	1.75854
361.816	2.00084
362.029	1.97078
362.241	1.76181
362.454	1.98409
362.666	1.71786
362.879	2.58011
363.091	2.05086
363.304	1.86807
363.516	2.25723
363.728	1.60598
363.941	2.68545
364.153	2.16484
364.366	0.98993
364.578	1.67803
364.79	2.6042
365.003	2.42079
365.215	1.97142
365.427	2.72392
365.639	3.16218
365.852	2.55449
366.064	3.95945
366.276	2.20703
366.488	2.65689
366.701	1.99656
366.913	2.29567
367.125	2.19608
367.337	1.71172
367.549	2.05599
367.762	2.50174
367.974	2.4603
368.186	1.94966
368.398	3.12031
368.61	2.89288
368.822	2.94881
369.034	2.40211
369.246	3.03345
369.458	4.62123
369.67	1.80666
369.882	3.78144
370.094	1.19064
370.306	3.64191
370.518	2.28216
370.73	2.10829
370.942	2.03674
371.154	2.49456
371.366	2.21317
371.578	2.78879
371.79	2.17222
372.002	3.43498
372.214	3.96565
372.425	2.56975
372.637	3.46169
372.849	2.85965
373.061	1.25923
373.273	2.92979
373.484	2.78936
373.696	3.32992
373.908	1.30202
374.12	3.46322
374.331	2.96527
374.543	2.18221
374.755	2.09554
374.967	2.77492
375.178	3.32563
375.39	2.41809
375.602	2.84439
375.813	1.74624
376.025	2.11736
376.236	2.7997
376.448	2.96293
376.66	2.58806
376.871	2.55656
377.083	3.69648
377.294	3.90604
377.506	2.54955
377.717	3.75064
377.929	3.13023
378.14	2.5021
378.352	3.13149
378.563	3.23695
378.775	3.83504
378.986	2.27107
379.197	2.89281
379.409	2.45232
379.62	3.47302
379.832	3.31289
380.043	2.80072
380.254	3.03582
380.466	2.2748
380.677	4.99714
380.888	4.37232
381.1	4.79938
381.311	4.8948
381.522	3.18568
381.733	5.06587
381.945	3.0455
382.156	3.11828
382.367	2.77023
382.578	5.12437
382.789	4.9845
383.001	2.92045
383.212	4.36231
383.423	4.30475
383.634	4.0363
383.845	3.78494
384.056	3.07941
384.267	3.44709
384.478	3.34905
384.69	2.60161
384.901	3.66317
385.112	3.63748
385.323	4.51418
385.534	3.79384
385.745	3.67163
385.956	3.68265
386.167	2.85857
386.378	3.88298
386.588	3.00857
386.799	2.97763
387.01	2.52075
387.221	4.08185
387.432	3.52041
387.643	4.79922
387.854	3.42185
388.065	3.41994
388.275	3.54057
388.486	3.36289
388.697	3.59778
388.908	3.38292
389.119	4.42139
389.329	4.71094
389.54	3.82005
389.751	4.024
389.962	4.66202
390.172	3.94924
390.383	3.73106
390.594	3.44752
390.804	3.47058
391.015	3.5377
391.226	4.01379
391.436	4.20585
391.647	4.23985
391.858	4.3481
392.068	3.02963
392.279	3.3993
392.489	4.22004
392.7	4.73549
392.91	3.59488
393.121	3.69559
393.331	4.40517
393.542	4.82966
393.752	4.59228
393.963	4.44818
394.173	4.38248
394.384	4.51175
394.594	4.23926
394.804	3.52133
395.015	4.36188
395.225	4.64462
395.436	3.74346
395.646	4.58625
395.856	3.91974
396.067	3.42648
396.277	4.85455
396.487	4.62973
396.697	4.57343
396.908	4.7021
397.118	4.7217
397.328	4.53883
397.538	4.99101
397.749	3.98109
397.959	4.98571
398.169	4.85715
398.379	3.61183
398.589	4.88415
398.8	4.62717
399.01	4.63627
399.22	4.31034
399.43	5.94041
399.64	4.55432
399.85	4.88912
400.06	4.66692
400.27	4.13708
400.48	4.59428
400.69	5.54868
400.9	4.38348
401.11	4.09013
401.32	5.21996
401.53	4.33821
401.74	5.75064
401.95	5.14452
402.16	4.32279
402.37	4.91976
402.58	4.52354
402.79	5.19985
403	5.54824
403.209	4.55182
403.419	5.67157
403.629	4.39596
403.839	5.51642
404.049	5.54085
404.258	4.72737
404.468	4.57414
404.678	5.30487
404.888	5.72213
405.097	4.86708
405.307	5.05364
405.517	5.56281
405.727	5.41688
405.936	4.95771
406.146	5.36535
406.356	5.97085
406.565	5.13396
406.775	4.85393
406.984	4.88428
407.194	6.20375
407.404	5.1138
407.613	5.63882
407.823	5.63173
408.032	5.868
408.242	5.78034
408.451	5.02524
408.661	5.2646
408.87	6.28839
409.08	4.82128
409.289	5.52839
409.499	5.55609
409.708	5.41366
409.918	4.12259
410.127	5.61736
410.336	6.36808
410.546	5.79021
410.755	5.22686
410.964	5.2727
411.174	4.98068
411.383	5.78724
411.592	5.65678
411.802	4.93022
412.011	5.89117
412.22	5.40947
412.429	6.55746
412.639	6.40239
412.848	6.18894
413.057	6.34844
413.266	6.34699
413.475	5.71683
413.685	5.91861
413.894	6.20253
414.103	6.27875
414.312	6.20416
414.521	5.52829
414.73	5.81838
414.939	6.96953
415.148	6.10842
415.357	5.98411
415.566	5.63528
415.776	5.60408
415.985	5.79419
416.194	6.55303
416.403	7.09765
416.611	5.35777
416.82	5.90629
417.029	6.19859
417.238	5.84538
417.447	5.6962
417.656	6.1075
417.865	5.824
418.074	6.08049
418.283	6.33314
418.492	6.88569
418.7	6.66767
418.909	7.58623
419.118	6.78817
419.327	7.0888
419.536	6.98365
419.744	6.91972
419.953	8.0489
420.162	8.24647
420.371	7.65348
420.579	8.03375
420.788	8.82589
420.997	8.9563
421.205	9.17563
421.414	8.93041
421.623	8.76201
421.831	8.72114
422.04	9.19267
422.249	8.45601
422.457	8.86123
422.666	8.09882
422.874	8.92595
423.083	8.936
423.291	8.95805
423.5	8.82005
423.708	9.13307
423.917	9.5348
424.125	9.07236
424.334	8.93946
424.542	10.50411
424.751	10.02252
424.959	9.64678
425.167	9.79765
425.376	9.64449
425.584	8.63925
425.793	8.61146
426.001	7.81491
426.209	8.0584
426.418	7.1053
426.626	6.93205
426.834	6.83475
427.042	7.0672
427.251	6.76036
427.459	7.55739
427.667	7.10851
427.875	6.43371
428.084	6.69007
428.292	7.5856
428.5	7.31096
428.708	6.42727
428.916	6.47381
429.124	7.00813
429.333	6.73921
429.541	6.87798
429.749	7.04407
429.957	6.99602
430.165	8.59977
430.373	6.24018
430.581	7.2288
430.789	7.90686
430.997	6.93135
431.205	6.61261
431.413	7.29964
431.621	6.83163
431.829	7.53385
432.037	7.01564
432.245	7.31576
432.453	7.39179
432.661	7.14965
432.869	8.22518
433.076	6.82102
433.284	7.21584
433.492	7.74529
433.7	7.862
433.908	7.20242
434.116	7.44398
434.323	7.47583
434.531	7.32045
434.739	7.70717
434.947	7.89389
435.154	7.87615
435.362	7.42958
435.57	7.32113
435.778	7.10118
435.985	7.52762
436.193	7.17403
436.401	8.08269
436.608	7.35963
436.816	7.13239
437.023	8.20414
437.231	8.3064
437.439	7.59132
437.646	7.84441
437.854	7.60957
438.061	7.8786
438.269	7.40849
438.476	7.814
438.684	7.4783
438.891	7.39442
439.099	7.23546
439.306	7.06608
439.514	7.09261
439.721	8.0832
439.929	7.72619
440.136	8.53695
440.343	8.53361
440.551	8.4938
440.758	9.88049
440.965	8.76552
441.173	8.56917
441.38	8.37039
441.587	8.30285
441.795	8.02643
442.002	7.91791
442.209	7.89314
442.416	8.06402
442.624	7.99893
442.831	7.90548
443.038	7.42972
443.245	7.17483
443.452	7.50686
443.66	7.95099
443.867	7.43877
444.074	7.36763
444.281	7.36105
444.488	7.59121
444.695	7.65485
444.902	7.50365
445.109	8.47588
445.316	8.25109
445.523	8.50411
445.73	8.71438
445.937	9.4861
446.144	9.8629
446.351	10.28445
446.558	9.40201
446.765	10.97183
446.972	10.46742
447.179	10.02715
447.386	10.53856
447.593	9.23979
447.8	10.00235
448.007	8.83432
448.214	8.45924
448.42	7.96836
448.627	8.34787
448.834	7.83427
449.041	7.82588
449.248	7.73528
449.454	8.13784
449.661	8.74714
449.868	7.61986
450.075	7.6067
450.281	6.749
450.488	7.22181
450.695	7.21121
450.901	7.39447
451.108	7.41585
451.315	8.20568
451.521	7.56682
451.728	8.22641
451.935	7.32296
452.141	7.63032
452.348	7.66771
452.554	7.66262
452.761	7.4419
452.967	8.61473
453.174	7.84437
453.38	7.99817
453.587	7.25308
453.793	7.89324
454	8.29899
454.206	8.89946
454.413	8.16726
454.619	8.05404
454.825	7.48639
455.032	8.13796
455.238	8.19699
455.445	7.20044
455.651	7.90155
455.857	6.9612
456.064	7.71203
456.27	7.48386
456.476	7.60293
456.682	7.2059
456.889	7.9384
457.095	8.01848
457.301	9.05402
457.507	7.83842
457.714	7.76084
457.92	7.8309
458.126	7.49694
458.332	7.76955
458.538	7.6278
458.744	7.81066
458.951	7.82228
459.157	9.57796
459.363	8.91523
459.569	9.23793
459.775	9.94419
459.981	9.5305
460.187	9.87291
460.393	10.25706
460.599	10.50526
460.805	9.71907
461.011	8.94526
461.217	8.98652
461.423	8.78193
461.629	8.13651
461.835	8.42968
462.041	7.97961
462.247	8.83172
462.453	7.87296
462.658	7.92234
462.864	8.31694
463.07	8.16687
463.276	8.15886
463.482	7.97409
463.688	8.68955
463.893	7.70251
464.099	7.9165
464.305	8.82776
464.511	7.71884
464.716	7.92184
464.922	8.51423
465.128	7.54687
465.333	8.83625
465.539	8.41011
465.745	8.10808
465.95	8.03297
466.156	9.53204
466.362	8.71607
466.567	8.06936
466.773	7.73745
466.978	8.9031
467.184	7.61932
467.389	7.14103
467.595	8.22465
467.8	7.78621
468.006	8.81769
468.211	8.82888
468.417	7.59777
468.622	8.39337
468.828	8.49314
469.033	8.38176
469.239	9.48987
469.444	7.90904
469.649	8.6303
469.855	8.09399
470.06	8.13142
470.266	7.7545
470.471	8.44714
470.676	8.43209
470.881	7.33341
471.087	8.86892
471.292	9.58478
471.497	7.58651
471.703	8.13763
471.908	7.8773
472.113	8.24951
472.318	8.654
472.523	7.71304
472.729	8.4047
472.934	8.51603
473.139	8.0142
473.344	8.44402
473.549	8.81925
473.754	7.89744
473.959	9.77359
474.164	7.83947
474.369	8.15317
474.575	8.59633
474.78	8.26605
474.985	7.89008
475.19	7.32029
475.395	7.89611
475.6	8.16185
475.804	9.00285
476.009	8.23093
476.214	8.32681
476.419	8.06713
476.624	7.56951
476.829	7.82741
477.034	8.62956
477.239	8.02125
477.444	8.64999
477.648	8.62058
477.853	8.67013
478.058	8.27022
478.263	8.03984
478.468	7.87365
478.672	7.85964
478.877	9.07492
479.082	9.14863
479.287	8.64852
479.491	8.36643
479.696	7.91821
479.901	8.76955
480.105	8.80259
480.31	8.10793
480.515	8.44505
480.719	9.50426
480.924	8.26302
481.128	7.94583
481.333	8.60398
481.538	8.6297
481.742	8.82116
481.947	9.68843
482.151	10.58791
482.356	11.24334
482.56	13.13231
482.765	14.50626
482.969	17.23006
483.174	19.45226
483.378	22.45872
483.582	23.53824
483.787	25.63688
483.991	26.34171
484.196	26.96496
484.4	26.69803
484.604	27.27547
484.809	25.02713
485.013	23.73602
485.217	21.66125
485.422	19.47072
485.626	17.74063
485.83	16.54548
486.034	15.68776
486.239	15.88975
486.443	16.12463
486.647	16.26822
486.851	17.16684
487.055	18.5803
487.26	18.54358
487.464	19.54759
487.668	19.26222
487.872	19.98354
488.076	20.14109
488.28	19.45986
488.484	18.46086
488.688	18.11388
488.892	17.18975
489.096	16.02113
489.3	14.76613
489.504	13.85113
489.708	13.07873
489.912	12.72187
490.116	12.32407
490.32	11.74025
490.524	12.73492
490.728	13.49355
490.932	14.04038
491.136	14.89416
491.34	16.11477
491.544	16.55747
491.748	16.65736
491.951	16.76096
492.155	16.38551
492.359	16.05895
492.563	14.86741
492.767	14.11807
492.97	12.75768
493.174	11.49901
493.378	10.54794
493.582	9.30849
493.785	8.88558
493.989	8.90183
494.193	8.87407
494.396	8.66239
494.6	9.15136
494.804	8.73364
495.007	8.39275
495.211	8.49075
495.414	8.58936
495.618	8.86692
495.822	9.34762
496.025	8.69656
496.229	9.04408
496.432	8.42464
496.636	8.81985
496.839	8.68981
497.043	9.47615
497.246	9.01294
497.45	8.64076
497.653	8.89407
497.856	8.904
498.06	8.41465
498.263	8.77403
498.467	8.64965
498.67	9.1342
498.873	9.03026
499.077	8.70272
499.28	8.69825
499.483	8.88259
499.686	9.08128
499.89	8.92035
500.093	9.18713
500.296	8.41531
500.499	9.47444
500.703	8.69943
500.906	8.97958
501.109	9.48612
501.312	8.73629
501.515	8.6629
501.719	8.91
501.922	9.25881
502.125	8.79095
502.328	8.64911
502.531	8.25031
502.734	8.65039
502.937	7.89692
503.14	8.76707
503.343	8.32311
503.546	8.48916
503.749	8.44461
503.952	9.02657
504.155	8.43644
504.358	8.8542
504.561	8.80247
504.764	8.16668
504.967	8.77897
505.17	8.64327
505.373	9.41915
505.576	8.72405
505.778	9.11238
505.981	8.30098
506.184	9.41259
506.387	7.9215
506.59	9.79214
506.793	9.14579
506.995	9.01389
507.198	7.91706
507.401	8.96362
507.604	8.93675
507.806	8.42092
508.009	8.51367
508.212	9.28073
508.414	8.44914
508.617	8.59209
508.82	8.78838
509.022	9.55158
509.225	8.87027
509.427	8.24046
509.63	9.46019
509.833	8.86541
510.035	8.64757
510.238	8.17638
510.44	9.45776
510.643	8.043
510.845	9.80575
511.048	9.08237
511.25	8.5828
511.453	8.8308
511.655	9.04756
511.858	8.74666
512.06	9.23979
512.262	9.05536
512.465	9.34475
512.667	8.68363
512.869	8.3821
513.072	9.13042
513.274	9.25046
513.476	9.15656
513.679	9.31848
513.881	8.42252
514.083	9.59583
514.286	8.57503
514.488	8.5696
514.69	8.46046
514.892	8.13001
515.094	9.13526
515.297	8.40354
515.499	8.9081
515.701	8.46077
515.903	9.7115
516.105	9.69178
516.307	9.24323
516.509	8.061
516.711	8.34305
516.913	8.90302
517.116	8.88624
517.318	8.6573
517.52	9.45208
517.722	9.26074
517.924	8.42502
518.126	9.17293
518.328	8.87912
518.529	9.52188
518.731	10.35184
518.933	8.98416
519.135	9.32751
519.337	9.91765
519.539	9.30434
519.741	8.35977
519.943	8.92877
520.145	8.98006
520.346	9.39908
520.548	8.77329
520.75	9.11778
520.952	8.73854
521.153	9.25319
521.355	9.09181
521.557	8.54536
521.759	9.00315
521.96	8.958
522.162	8.4686
522.364	9.4374
522.565	8.68593
522.767	9.23683
522.969	9.43471
523.17	9.28249
523.372	9.19627
523.573	8.68288
523.775	8.8242
523.977	8.49692
524.178	9.89578
524.38	8.68272
524.581	9.31356
524.783	8.89331
524.984	9.34099
525.186	9.19721
525.387	9.71169
525.589	9.72761
525.79	9.86303
525.991	9.90134
526.193	10.46879
526.394	9.95434
526.596	10.86025
526.797	11.07966
526.998	10.82132
527.2	11.23469
527.401	13.01122
527.602	14.02632
527.803	16.17819
528.005	17.36981
528.206	18.78038
528.407	19.99517
528.608	20.2322
528.81	20.81177
529.011	20.49321
529.212	21.2881
529.413	20.23006
529.614	19.0954
529.815	18.02173
530.017	16.69309
530.218	14.75635
530.419	13.19955
530.62	12.68846
530.821	11.8816
531.022	10.54355
531.223	11.07214
531.424	10.8832
531.625	10.83341
531.826	10.42085
532.027	10.96175
532.228	12.07169
532.429	12.21778
532.63	12.64246
532.831	13.62727
533.032	13.86086
533.233	14.6048
533.433	14.40251
533.634	14.68911
533.835	14.05262
534.036	13.53156
534.237	13.10868
534.438	12.29739
534.638	10.98534
534.839	10.58536
535.04	10.22557
535.241	9.52742
535.441	10.3461
535.642	9.90052
535.843	9.32013
536.043	9.6087
536.244	9.82671
536.445	10.16929
536.645	10.85194
536.846	10.55326
537.047	10.96856
537.247	9.8987
537.448	9.75619
537.648	9.47713
537.849	9.27084
538.049	9.19446
538.25	9.54413
538.451	9.47107
538.651	8.87279
538.851	9.50674
539.052	9.83543
539.252	9.63912
539.453	9.23028
539.653	9.32484
539.854	9.26623
540.054	9.32553
540.254	10.90363
540.455	12.01681
540.655	12.25191
540.855	13.86202
541.056	14.99373
541.256	15.0208
541.456	16.04609
541.657	15.85312
541.857	16.53878
542.057	15.36487
542.257	14.87876
542.458	15.1605
542.658	14.69779
542.858	12.88508
543.058	12.65239
543.258	11.96598
543.458	10.66293
543.659	10.12895
543.859	10.58689
544.059	10.17342
544.259	9.59135
544.459	10.06015
544.659	9.47298
544.859	9.75211
545.059	9.33229
545.259	9.97405
545.459	9.54802
545.659	9.92816
545.859	9.56938
546.059	9.67602
546.259	9.14121
546.459	8.87808
546.659	8.98471
546.859	9.83752
547.059	9.54338
547.258	9.67436
547.458	9.69753
547.658	8.98085
547.858	8.90137
548.058	9.46424
548.258	9.23842
548.457	9.0068
548.657	10.47677
548.857	9.26645
549.057	9.73425
549.256	9.61242
549.456	8.93276
549.656	8.24489
549.855	10.32194
550.055	8.97592
550.255	10.20557
550.454	9.39073
550.654	9.56742
550.853	10.013
551.053	9.71073
551.253	9.38066
551.452	9.49734
551.652	8.4598
551.851	8.33745
552.051	8.92747
552.25	8.90575
552.45	8.81416
552.649	9.00914
552.849	8.74135
553.048	9.15572
553.248	9.61155
553.447	8.63673
553.646	9.5871
553.846	10.64468
554.045	9.98018
554.244	8.3666
554.444	10.00003
554.643	8.6703
554.842	10.21162
555.042	10.26773
555.241	8.82444
555.44	8.53379
555.64	9.45279
555.839	9.94909
556.038	9.47122
556.237	8.6959
556.436	9.22754
556.636	9.28743
556.835	8.65935
557.034	10.09469
557.233	8.97319
557.432	8.10055
557.631	9.66138
557.83	8.95918
558.029	8.70221
558.228	8.62371
558.427	8.44001
558.626	9.22732
558.825	8.407
559.024	8.81341
559.223	10.17682
559.422	8.88339
559.621	9.26531
559.82	7.50967
560.019	8.91321
560.218	8.63193
560.417	7.48788
560.616	8.70723
560.815	11.14785
561.014	8.08105
561.212	10.10046
561.411	9.08439
561.61	8.22836
561.809	8.86068
562.008	10.22641
562.206	8.72854
562.405	9.3774
562.604	8.90998
562.803	9.21121
563.001	8.98399
563.2	8.20769
563.399	9.34557
563.597	8.2885
563.796	8.97919
563.995	8.29332
564.193	9.46305
564.392	8.85544
564.59	10.36897
564.789	7.89549
564.988	8.8364
565.186	9.1942
565.385	8.964
565.583	8.82917
565.782	9.0434
565.98	8.93724
566.179	8.94043
566.377	8.56923
566.575	8.69454
566.774	10.11341
566.972	9.64181
567.171	10.37788
567.369	10.00917
567.567	9.35864
567.766	9.2157
567.964	7.82554
568.162	9.51068
568.361	9.9455
568.559	8.91411
568.757	9.24833
568.956	9.04868
569.154	9.05312
569.352	9.37539
569.55	8.87596
569.748	9.199
569.947	8.54421
570.145	8.34704
570.343	8.55088
570.541	10.09251
570.739	8.22988
570.937	9.07566
571.135	9.33927
571.333	10.5524
571.532	10.47654
571.73	9.24619
571.928	9.80289
572.126	9.62173
572.324	9.08537
572.522	9.92242
572.72	10.91778
572.918	9.17471
573.116	9.55114
573.313	9.0809
573.511	9.17939
573.709	8.77821
573.907	9.76748
574.105	8.8944
574.303	8.16763
574.501	8.19455
574.699	9.47876
574.896	9.33315
575.094	9.58208
575.292	8.33769
575.49	9.7397
575.688	9.12152
575.885	10.04899
576.083	10.75685
576.281	9.48216
576.478	8.64727
576.676	9.56498
576.874	8.09434
577.071	9.06773
577.269	10.53155
577.467	8.99407
577.664	9.13506
577.862	9.66299
578.059	8.44265
578.257	9.56949
578.455	8.85705
578.652	8.98441
578.85	7.67055
579.047	9.24976
579.245	8.65178
579.442	9.02299
579.64	8.90523
579.837	7.85444
580.034	10.89563
580.232	8.74822
580.429	8.18863
580.627	9.28068
580.824	9.91828
581.021	9.40789
581.219	8.61926
581.416	8.3813
581.613	10.02959
581.811	10.08907
582.008	8.353
582.205	9.72482
582.402	9.23632
582.6	10.80669
582.797	9.23637
582.994	9.28809
583.191	9.74099
583.388	9.05598
583.586	9.58865
583.783	9.96184
583.98	8.19682
584.177	9.24328
584.374	7.12719
584.571	8.87991
584.768	8.92095
584.965	8.7176
585.162	9.60338
585.359	10.4296
585.556	9.05725
585.753	9.45425
585.95	7.95654
586.147	8.34329
586.344	9.49888
586.541	8.7155
586.738	8.16896
586.935	8.82338
587.132	8.48423
587.329	9.90723
587.526	9.05056
587.722	13.08488
587.919	8.04515
588.116	9.28774
588.313	10.19054
588.51	10.64768
588.706	8.86886
588.903	9.5449
589.1	9.95427
589.297	11.53119
589.493	9.14926
589.69	9.66602
589.887	8.63366
590.083	8.21842
590.28	8.43416
590.477	9.83795
590.673	9.63987
590.87	10.18389
591.067	8.44873
591.263	9.3824
591.46	9.42655
591.656	8.82011
591.853	10.56542
592.049	8.42489
592.246	8.67
592.442	10.03479
592.639	10.23422
592.835	8.35086
593.032	9.37221
593.228	7.9816
593.425	8.03034
593.621	7.74593
593.817	9.35089
594.014	8.41077
594.21	9.42307
594.406	10.00282
594.603	9.39658
594.799	8.61465
594.995	7.48844
595.192	10.07657
595.388	8.84783
595.584	8.78538
595.78	8.12046
595.977	11.33884
596.173	10.49798
596.369	8.93661
596.565	8.38439
596.761	8.14352
596.957	10.10954
597.154	8.57765
597.35	8.78552
597.546	8.76374
597.742	9.57908
597.938	9.30126
598.134	8.59009
598.33	9.29624
598.526	10.23264
598.722	9.40038
598.918	10.63167
599.114	9.64534
599.31	8.12418
599.506	9.15183
599.702	8.54621
599.898	9.35031
600.094	9.90686
600.29	9.79177
600.485	9.99798
600.681	8.58155
600.877	10.60417
601.073	9.04615
601.269	11.00648
601.465	10.40806
601.66	8.41522
601.856	7.46733
602.052	10.92871
602.248	8.91197
602.443	7.53232
602.639	8.25227
602.835	8.59784
603.03	8.37383
603.226	9.93613
603.422	8.58264
603.617	9.02643
603.813	8.99964
604.009	8.83287
604.204	10.16991
604.4	8.22906
604.595	10.23554
604.791	8.49276
604.986	9.59802
605.182	8.68823
605.377	9.0426
605.573	8.93801
605.768	9.31172
605.964	9.81292
606.159	9.74283
606.355	10.15429
606.55	8.93559
606.746	10.09738
606.941	9.24319
607.136	10.93212
607.332	11.80306
607.527	8.17532
607.722	9.54228
607.918	8.95468
608.113	8.54088
608.308	10.16679
608.503	9.78235
608.699	9.60689
608.894	9.91353
609.089	8.73123
609.284	9.79006
609.479	8.945
609.675	10.06673
609.87	9.16324
610.065	10.10745
610.26	10.24629
610.455	10.26715
610.65	9.50585
610.845	10.03639
611.04	10.49774
611.235	9.44484
611.43	9.61525
611.625	8.75091
611.82	11.0111
612.015	9.11619
612.21	11.34252
612.405	8.24058
612.6	11.20329
612.795	11.13117
612.99	10.47011
613.185	8.62158
613.38	8.81587
613.575	9.55618
613.77	12.44452
613.965	8.13165
614.159	8.96113
614.354	11.02021
614.549	10.59043
614.744	9.93788
614.938	8.38158
615.133	8.2282
615.328	10.98715
615.523	10.75072
615.717	12.52377
615.912	8.97301
616.107	9.48194
616.301	8.9672
616.496	8.87973
616.691	11.18262
616.885	10.19575
617.08	12.59014
617.274	10.653
617.469	11.6592
617.664	10.13137
617.858	8.95645
618.053	9.9022
618.247	9.23047
618.442	7.30158
618.636	11.12472
618.831	8.71187
619.025	8.98615
619.219	12.81612
619.414	6.31593
619.608	9.14861
619.803	8.8593
619.997	12.10182
620.191	10.76181
620.386	9.79955
620.58	9.49008
620.774	7.62653
620.969	7.88121
621.163	9.77477
621.357	8.1381
621.551	9.29184
621.746	9.77567
621.94	9.26109
622.134	13.17655
622.328	11.9288
622.522	8.06068
622.716	10.6899
622.911	10.78671
623.105	10.70412
623.299	9.88143
623.493	13.12498
623.687	8.94735
623.881	8.98032
624.075	10.34328
624.269	11.10276
624.463	7.40902
624.657	7.83178
624.851	10.34631
625.045	10.42823
625.239	10.53001
625.433	8.91019
625.627	11.56057
625.821	9.05281
626.015	8.70576
626.209	9.66986
626.403	7.99208
626.596	10.06948
626.79	10.53272
626.984	8.4639
627.178	10.31056
627.372	10.27784
627.565	10.44723
627.759	8.31197
627.953	8.59954
628.147	9.88673
628.34	10.42563
628.534	12.18873
628.728	9.34029
628.921	10.76626
629.115	10.41822
629.309	10.68454
629.502	10.85631
629.696	9.82512
629.89	9.64711
630.083	10.21175
630.277	9.94617
630.47	11.65705
630.664	9.25499
630.857	8.13696
631.051	10.75022
631.244	11.0138
631.438	11.00955
631.631	9.03183
631.825	11.42655
632.018	10.43664
632.212	12.22788
632.405	11.14304
632.598	8.73257
632.792	9.91696
632.985	6.89163
633.178	9.61785
633.372	9.76876
633.565	9.50025
633.758	11.47854
633.952	8.70177
634.145	8.62252
634.338	9.34608
634.531	9.25372
634.724	8.75583
634.918	9.85323
635.111	9.54786
635.304	9.40644
635.497	12.82025
635.69	10.27502
635.883	11.20691
636.077	8.77595
636.27	10.61321
636.463	10.19468
636.656	10.42232
636.849	9.51783
637.042	10.66489
637.235	12.64283
637.428	11.11524
637.621	10.57123
637.814	12.02297
638.007	11.83421
638.2	11.99199
638.393	12.70705
638.586	8.561
638.778	9.38902
638.971	10.04601
639.164	12.10056
639.357	10.56998
639.55	12.4776
639.743	11.00327
639.935	10.82534
640.128	13.62869
640.321	11.69298
640.514	10.5666
640.707	13.58542
640.899	11.30415
641.092	7.99559
641.285	25.94326
641.477	7.46167
641.67	14.16821
641.863	12.31244
642.055	10.36507
642.248	10.42577
642.441	9.96518
642.633	11.3488
642.826	11.78706
643.018	12.43285
643.211	13.16426
643.403	13.64985
643.596	13.80913
643.788	13.21386
643.981	10.15283
644.173	11.801
644.366	10.11782
644.558	8.13791
644.751	11.97758
644.943	8.72413
645.135	13.12981
645.328	13.22118
645.52	11.75736
645.712	12.31273
645.905	15.53401
646.097	8.96259
646.289	11.01505
646.482	14.11361
646.674	9.59357
646.866	12.74455
647.058	11.52792
647.251	9.40883
647.443	9.93849
647.635	10.49206
647.827	9.34047
648.019	9.3385
648.211	10.54368
648.404	11.19214
648.596	13.72158
648.788	11.33634
648.98	10.96839
649.172	11.84007
649.364	11.51574
649.556	8.4151
649.748	15.09286
649.94	9.23559
650.132	12.3031
650.324	9.63214
650.516	9.89021
650.708	12.88182
650.9	8.75756
651.092	8.69883
651.284	9.15794
651.476	9.27436
651.667	12.26731
651.859	13.39869
652.051	10.78157
652.243	11.28238
652.435	10.19746
652.627	11.73202
652.818	11.90452
653.01	8.46515
653.202	9.71678
653.394	10.34062
653.585	11.92196
653.777	18.4005
653.969	13.55372
654.16	13.27065
654.352	9.50312
654.544	10.90864
654.735	13.03229
654.927	11.35212
655.118	13.82095
655.31	12.74119
655.502	13.18009
655.693	10.75644
655.885	12.03298
656.076	13.72295
656.268	11.79696
656.459	13.82151
656.651	13.66964
656.842	11.04663
657.034	10.3168
657.225	12.79332
657.416	13.8112
657.608	13.75479
657.799	11.68015
657.99	13.69082
658.182	10.27859
658.373	10.34507
658.564	13.22105
658.756	11.78954
658.947	11.05314
659.138	10.15248
659.33	10.4302
659.521	10.18795
659.712	11.13345
659.903	11.09958
660.094	10.60509
660.286	8.99024
660.477	14.27719
660.668	12.63024
660.859	11.20956
661.05	9.19241
661.241	12.62945
661.432	12.10253
661.623	11.05953
661.814	11.30922
662.006	9.25283
662.197	12.13302
662.388	13.95038
662.579	12.07926
662.77	13.84087
662.96	16.74041
663.151	13.72283
663.342	8.76072
663.533	12.97559
663.724	11.66198
663.915	15.29964
664.106	12.03716
664.297	15.48158
664.488	13.15303
664.678	10.59379
664.869	13.34449
665.06	13.6303
665.251	12.43955
665.442	12.94136
665.632	9.94041
665.823	15.98885
666.014	7.35672
666.204	13.25176
666.395	14.69796
666.586	16.6495
666.776	13.70311
666.967	16.12036
667.158	12.06431
667.348	15.2338
667.539	10.39619
667.729	14.34615
667.92	10.91941
668.111	14.24718
668.301	13.49645
668.492	11.99235
668.682	12.64004
668.873	12.27154
669.063	10.1649
669.253	12.81003
669.444	15.33046
669.634	12.2173
669.825	15.99638
670.015	14.96739
670.206	11.0558
670.396	16.45446
670.586	11.89586
670.777	13.40062
670.967	8.45794
671.157	11.90975
671.347	11.1637
671.538	15.76735
671.728	14.06737
671.918	16.36379
672.108	14.27909
672.299	12.36755
672.489	12.90956
672.679	11.20537
672.869	13.44341
673.059	17.41749
673.249	13.47877
673.44	10.68089
673.63	12.10961
673.82	14.62392
674.01	10.86931
674.2	13.45061
674.39	18.59657
674.58	14.19585
674.77	13.13903
674.96	12.70531
675.15	21.70138
675.34	15.16433
675.53	13.07257
675.72	12.17133
675.91	9.82994
676.099	16.85556
676.289	18.5461
676.479	15.42227
676.669	12.07913
676.859	13.91781
677.049	11.25486
677.238	13.29824
677.428	16.92368
677.618	14.50767
677.808	17.44348
677.997	14.1918
678.187	11.47207
678.377	13.2699
678.567	11.89406
678.756	12.22106
678.946	13.09644
679.136	10.64369
679.325	12.05141
679.515	11.34898
679.704	10.62348
679.894	15.08261
680.084	13.98936
680.273	15.78978
680.463	11.42414
680.652	11.45503
680.842	13.21862
681.031	15.17771
681.221	11.35557
681.41	14.39452
681.6	12.99389
681.789	14.95552
681.978	15.66131
682.168	13.89426
682.357	13.9736
682.547	14.18391
682.736	14.22721
682.925	16.3834
683.115	16.15781
683.304	15.23457
683.493	14.04732
683.682	14.61796
683.872	14.82506
684.061	16.36346
684.25	14.75778
684.439	19.42985
684.629	16.00996
684.818	21.56973
685.007	14.04742
685.196	13.43963
685.385	18.6387
685.574	15.05758
685.763	15.28446
685.952	14.82967
686.142	11.37635
686.331	18.04977
686.52	11.47224
686.709	19.15044
686.898	18.97854
687.087	16.25306
687.276	18.51667
687.465	17.79292
687.654	13.64711
687.842	18.0048
688.031	11.89963
688.22	18.30659
688.409	15.30963
688.598	15.56496
688.787	21.3747
688.976	15.07323
689.165	19.84829
689.353	13.9523
689.542	15.83353
689.731	17.54548
689.92	20.77171
690.108	16.77665
690.297	14.1313
690.486	15.69048
690.675	16.9091
690.863	19.28998
691.052	19.11834
691.241	15.80534
691.429	16.09968
691.618	18.81947
691.806	12.37157
691.995	14.75964
692.184	15.67676
692.372	14.88461
692.561	15.24993
692.749	16.50993
692.938	24.56596
693.126	17.3832
693.315	15.00461
693.503	17.70865
693.692	18.24585
693.88	17.98608
694.068	21.11149
694.257	16.06455
694.445	17.73483
694.634	10.84665
694.822	18.34275
695.01	19.42569
695.199	21.96993
695.387	20.05325
695.575	19.33083
695.763	15.97154
695.952	15.49038
696.14	11.96298
696.328	15.1648
696.516	16.59842
696.705	17.36193
696.893	16.38455
697.081	11.69658
697.269	18.40443
697.457	13.24646
697.645	12.46944
697.833	17.83314
698.021	13.61267
698.21	14.07491
698.398	14.83387
698.586	12.4834
698.774	12.41332
698.962	15.04556
699.15	12.78573
699.338	11.66712
699.526	16.53126
699.714	13.46498
699.901	13.64737
700.089	17.18103
700.277	13.46118
700.465	14.9016
700.653	17.48358
700.841	16.19073
701.029	13.86964
701.217	19.69973
701.404	15.70438
701.592	20.03331
701.78	22.82526
701.968	15.53745
702.155	15.69148
702.343	13.10085
702.531	20.07307
702.718	17.53934
702.906	14.70284
703.094	14.86409
703.281	20.30738
703.469	16.13987
703.657	20.4263
703.844	26.63357
704.032	23.49519
704.219	15.78718
704.407	19.00516
704.595	21.89472
704.782	18.24294
704.97	17.35408
705.157	16.88379
705.345	24.03743
705.532	29.21432
705.719	21.06652
705.907	24.17762
706.094	20.76559
706.282	26.75477
706.469	20.79318
706.656	21.44253
706.844	20.50394
707.031	25.16105
707.218	23.48689
707.406	27.42617
707.593	24.75161
707.78	24.60747
707.968	22.7801
708.155	20.66672
708.342	25.16921
708.529	25.45737
708.716	24.19841
708.904	28.55256
709.091	25.23663
709.278	19.69058
709.465	29.42111
709.652	27.69226
709.839	27.27377
710.026	22.76212
710.213	17.42507
710.4	22.72271
710.587	24.48298
710.774	24.84905
710.961	26.3221
711.148	22.59292
711.335	25.76258
711.522	22.08202
711.709	24.13053
711.896	29.39418
712.083	26.22393
712.27	19.82199
712.457	23.66401
712.644	17.9281
712.831	30.21076
713.017	23.48293
713.204	25.17607
713.391	20.1406
713.578	25.5652
713.765	27.60241
713.951	23.34559
714.138	32.95172
714.325	22.8026
714.512	21.04457
714.698	18.06918
714.885	25.74693
715.072	20.85419
715.258	20.10248
715.445	17.79454
715.631	24.38085
715.818	11.7153
716.005	17.56863
716.191	22.32031
716.378	18.54263
716.564	22.41007
716.751	16.09965
716.937	18.338
717.124	23.22663
717.31	16.49955
717.497	27.7328
717.683	17.53119
717.869	28.11209
718.056	17.90483
718.242	21.62446
718.429	19.1736
718.615	15.88921
718.801	20.10789
718.988	24.94826
719.174	21.65687
719.36	18.19111
719.547	25.34913
719.733	21.3009
719.919	21.5016
720.105	22.49962
720.291	20.06756
720.478	21.03371
720.664	19.74431
720.85	18.34704
721.036	31.68735
721.222	27.02934
721.408	20.37458
721.595	28.01247
721.781	27.03578
721.967	24.87694
722.153	28.21119
722.339	23.97374
722.525	22.53693
722.711	17.10572
722.897	16.1887
723.083	19.30165
723.269	25.47036
723.455	33.89461
723.641	38.82178
723.827	21.72411
724.012	23.03708
724.198	21.07187
724.384	26.50858
724.57	22.92251
724.756	16.26765
724.942	13.16755
725.127	27.36499
725.313	27.17706
725.499	26.67523
725.685	30.21079
725.87	22.91122
726.056	17.79643
726.242	28.07176
726.428	14.73826
726.613	25.44834
726.799	20.06314
726.985	17.61858
727.17	14.67023
727.356	31.44982
727.541	17.54194
727.727	21.02337
727.913	25.30983
728.098	19.39961
728.284	25.19861
728.469	16.49337
728.655	18.02157
728.84	26.77427
729.026	25.51891
729.211	25.40587
729.397	23.69043
729.582	25.45769
729.767	21.79679
729.953	22.98796
730.138	27.7637
730.323	12.1342
730.509	17.96215
730.694	29.63294
730.879	25.02521
731.065	23.53429
731.25	32.86883
731.435	24.9987
731.621	15.91724
731.806	20.0068
731.991	22.66943
732.176	16.42903
732.361	29.1526
732.547	23.93283
732.732	15.52002
732.917	32.99747
733.102	16.84636
733.287	19.62904
733.472	21.70811
733.657	21.63532
733.842	16.29525
734.027	19.73702
734.212	21.15036
734.397	18.86719
734.582	22.88733
734.767	26.36735
734.952	29.61753
735.137	11.95158
735.322	28.7689
735.507	24.38634
735.692	23.57432
735.877	33.10809
736.062	32.12392
736.247	24.21001
736.431	22.61912
736.616	27.23284
736.801	24.19702
736.986	23.52249
737.171	18.11635
737.355	17.04032
737.54	29.3892
737.725	22.8845
737.909	36.85022
738.094	20.43614
738.279	25.75625
738.463	21.8922
738.648	26.05462
738.833	24.54467
739.017	34.22751
739.202	22.12539
739.386	22.03549
739.571	18.65963
739.756	27.9255
739.94	23.29933
740.125	25.89656
740.309	20.44982
740.494	27.64486
740.678	23.76226
740.863	26.04304
741.047	24.04321
741.231	31.14025
741.416	21.06233
741.6	32.09234
741.785	19.56606
741.969	28.2807
742.153	31.85152
742.338	13.00484
742.522	23.16626
742.706	28.35103
742.89	16.98142
743.075	24.01526
743.259	30.73871
743.443	30.8482
743.627	31.01725
743.812	35.72681
743.996	15.75131
744.18	22.15611
744.364	21.60243
744.548	37.10972
744.732	23.04534
744.916	29.01956
745.1	27.30836
745.285	22.67083
745.469	27.68578
745.653	33.97412
745.837	17.91456
746.021	37.6631
746.205	31.19501
746.389	25.333
746.573	23.32759
746.757	32.41829
746.94	21.35923
747.124	31.10622
747.308	18.68564
747.492	30.40404
747.676	19.71139
747.86	38.36501
748.044	23.13901
748.227	15.18713
748.411	47.62542
748.595	25.272
748.779	19.84879
748.963	27.4926
749.146	25.97254
749.33	20.11331
749.514	19.89634
749.697	31.70321
749.881	20.15406
750.065	20.2181
750.248	25.85542
750.432	39.22618
750.616	24.78844
750.799	18.85675
750.983	39.85824
751.166	40.03028
751.35	16.1563
751.533	30.77987
751.717	34.46817
751.9	34.89406
752.084	22.86492
752.267	20.69213
752.451	19.77862
752.634	25.72918
752.818	28.19623
753.001	32.42915
753.184	33.02169
753.368	26.97013
753.551	6.98097
753.734	21.51409
753.918	41.57006
754.101	21.53887
754.284	29.77222
754.467	22.42669
754.651	21.12958
754.834	19.44694
755.017	32.26777
755.2	32.02858
755.384	19.61919
755.567	30.33576
755.75	30.5181
755.933	22.26193
756.116	30.15486
756.299	21.10322
756.482	19.9235
756.665	28.85096
756.848	25.65507
757.032	26.80677
757.215	17.02116
757.398	20.14037
757.581	21.6158
757.764	43.26536
757.947	25.37818
758.129	30.62533
758.312	9.61648
758.495	23.64624
758.678	24.41702
758.861	23.6799
759.044	37.63009
759.227	19.22634
759.41	20.96203
759.592	29.60983
759.775	23.50112
759.958	32.38827
760.141	18.33888
760.324	40.38299
760.506	34.70701
760.689	30.3003
760.872	39.4834
761.054	28.28575
761.237	25.48965
761.42	26.6712
761.602	30.47028
761.785	27.76411
761.968	33.09306
762.15	37.26705
762.333	24.7395
762.515	28.91724
762.698	22.09355
762.88	31.94832
763.063	28.18673
763.245	33.46517
763.428	20.55095
763.61	23.0696
763.793	18.53026
763.975	27.20338
764.158	23.12349
764.34	21.89572
764.522	19.90035
764.705	23.65369
764.887	34.62377
765.069	16.32376
765.252	29.07297
765.434	29.61797
765.616	25.9264
765.799	20.76043
765.981	30.06771
766.163	21.08633
766.345	34.98464
766.528	20.92374
766.71	13.78564
766.892	26.74565
767.074	34.02526
767.256	23.80118
767.438	38.26222
767.62	27.15268
767.802	41.82066
767.985	29.80868
768.167	38.66349
768.349	23.13602
768.531	30.38009
768.713	28.06843
768.895	31.9054
769.077	29.33224
769.259	45.34647
769.441	61.87481
769.623	31.85953
769.804	38.49385
769.986	34.83948
770.168	42.79841
770.35	52.98626
770.532	39.16052
770.714	44.78025
770.896	43.30518
771.077	18.34664
771.259	46.33989
771.441	40.07085
771.623	48.89935
771.804	58.84985
771.986	21.89788
772.168	31.08731
772.35	44.17863
772.531	59.91637
772.713	38.81728
772.894	52.10215
773.076	36.09818
773.258	33.51375
773.439	52.37337
773.621	57.31492
773.802	27.43749
773.984	31.6652
774.166	40.85106
774.347	53.80879
774.529	48.65428
774.71	18.18425
774.891	37.46199
775.073	33.39267
775.254	51.98569
775.436	30.56995
775.617	64.00174
775.799	33.34663
775.98	53.15068
776.161	56.42388
776.343	59.28974
776.524	37.03571
776.705	37.03445
776.886	19.93042
777.068	44.32463
777.249	88.79948
777.43	60.84259
777.611	25.38542
777.793	35.09459
777.974	59.44033
778.155	32.39156
778.336	28.46342
778.517	67.43301
778.698	29.56096
778.879	21.80696
779.061	12.34822
779.242	43.47492
779.423	43.20526
779.604	31.51874
779.785	34.44232
779.966	40.87248
780.147	50.46721
780.328	50.85387
780.509	70.14313
780.69	53.35189
780.871	31.98765
781.051	23.77467
781.232	39.89761
781.413	39.1493
781.594	34.87892
781.775	32.42668
781.956	30.31141
782.137	17.82893
782.317	33.78086
782.498	39.61911
782.679	40.12161
782.86	41.90079
783.04	30.53866
783.221	40.78284
783.402	61.92263
783.583	39.36962
783.763	48.6333
783.944	31.77367
784.124	23.15519
784.305	61.39533
784.486	47.8778
784.666	38.58464
784.847	21.65831
785.027	81.21191
785.208	32.97279
785.388	30.96905
785.569	30.63203
785.749	35.27867
785.93	33.80897
786.11	22.51058
786.291	45.49584
786.471	42.76249
786.652	48.37987
786.832	37.68873
787.012	41.44837
787.193	26.59741
787.373	38.35156
787.553	32.62544
787.734	41.39949
787.914	34.07858
788.094	50.84375
788.275	41.98982
788.455	34.92957
788.635	26.38503
788.815	40.30928
788.995	28.0584
789.176	21.74163
789.356	29.00745
789.536	35.30113
789.716	44.0628
789.896	29.67455
790.076	33.16234
790.256	43.47243
790.436	15.7229
790.616	27.13078
790.796	41.73382
790.976	33.95101
791.156	29.26371
791.336	44.88013
791.516	42.21772
791.696	35.61845
791.876	21.95873
792.056	40.46757
792.236	49.37752
792.416	47.78241
792.596	42.12151
792.776	41.38209
792.956	48.38266
793.135	60.63724
793.315	26.8973
793.495	51.89742
793.675	48.39773
793.854	46.85959
794.034	50.07359
794.214	27.04431
794.394	47.67512
794.573	54.15544
794.753	40.60237
794.933	29.61154
795.112	41.69995
795.292	50.81934
795.472	59.48315
795.651	24.66225
795.831	38.9492
796.01	36.15846
796.19	34.8159
796.369	38.90816
796.549	42.65276
796.728	35.50975
796.908	24.20126
797.087	26.28472
797.267	34.92408
797.446	25.65025
797.626	44.09069
797.805	43.07226
797.984	29.38334
798.164	47.32427
798.343	28.57578
798.522	41.31897
798.702	39.06673
798.881	25.77006
799.06	34.82047
799.239	19.7603
799.419	28.22993
799.598	59.68282
799.777	43.72774
799.956	52.65825
800.136	34.9103
800.315	27.08154
800.494	42.2141
800.673	49.38339
800.852	47.49025
801.031	51.27586
801.21	45.53084
801.389	34.10656
801.568	40.6369
801.747	60.69105
801.926	37.03126
802.105	56.01532
802.284	32.7131
802.463	59.26561
802.642	41.74162
802.821	41.10108
803	54.83219
803.179	50.15856
803.358	52.85914
803.537	31.13998
803.716	39.35481
803.895	31.27942
804.073	35.96985
804.252	31.09084
804.431	43.60837
804.61	37.91153
804.789	48.49286
804.967	33.2554
805.146	32.46588
805.325	66.96927
805.503	42.32381
805.682	24.40337
805.861	82.28117
806.039	56.21077
806.218	33.09835
806.397	41.21539
806.575	40.18271
806.754	42.94933
806.932	27.60813
807.111	52.02914
807.289	49.30984
807.468	40.11251
807.646	50.53346
807.825	44.34901
808.003	42.37907
808.182	52.73146
808.36	40.49093
808.539	28.01321
808.717	58.77352
808.895	32.65285
809.074	40.60717
809.252	38.2751
809.43	47.12775
809.609	55.99251
809.787	64.40859
809.965	37.21312
810.144	39.85085
810.322	37.18258
810.5	46.07381
810.678	33.70413
810.856	68.29134
811.035	53.94679
811.213	46.91584
811.391	57.86132
811.569	44.42032
811.747	91.26796
811.925	55.17896
812.103	33.03243
812.281	40.29754
812.459	64.25805
812.637	64.2224
812.816	53.5625
812.994	67.11623
813.171	58.94557
813.349	48.4936
813.527	53.02772
813.705	61.45893
813.883	77.83974
814.061	53.35217
814.239	66.61299
814.417	70.5697
814.595	49.30097
814.773	46.56629
814.95	44.9643
815.128	48.16611
815.306	43.7384
815.484	39.73416
815.662	31.29628
815.839	26.71169
816.017	36.64225
816.195	57.26944
816.372	35.79474
816.55	51.83485
816.728	65.08091
816.905	39.98812
817.083	63.36676
817.261	43.61378
817.438	86.61448
817.616	69.4824
817.793	37.30634
817.971	52.97028
818.148	53.18922
818.326	60.67836
818.503	47.06768
818.681	65.21544
818.858	39.233
819.036	42.44168
819.213	45.26968
819.391	35.80338
819.568	34.02565
819.745	29.9389
819.923	53.08394
820.1	39.08208
820.277	32.37541
820.455	38.19154
820.632	40.09526
820.809	43.40183
820.986	28.11049
821.164	23.5717
821.341	21.30718
821.518	32.58396
821.695	23.02017
821.872	21.31391
822.05	19.13159
822.227	15.54706
822.404	16.58652
822.581	18.80663
822.758	16.49316
822.935	16.56311
823.112	18.46561
823.289	15.873
823.466	18.90955
823.643	17.46137
823.82	20.62442
823.997	18.52143
824.174	21.23094
824.351	27.77839
824.528	26.52808
824.705	23.25023
824.882	25.90142
825.059	32.59924
825.236	23.74561
825.412	25.14933
825.589	30.0287
825.766	42.10365
825.943	27.01526
826.12	31.12554
826.296	23.92305
826.473	28.69539
826.65	29.14457
826.827	33.43625
827.003	23.3307
827.18	26.5544
827.357	29.36711
827.533	25.36338
827.71	15.2217
827.887	22.54538
828.063	25.37569
828.24	21.51397
828.416	28.44142
828.593	23.60621
828.769	32.51965
828.946	33.46363
829.122	34.40834
829.299	32.89465
829.475	22.03144
829.652	32.98783
829.828	53.65456
830.005	35.18616
830.181	47.02006
830.357	36.42316
830.534	47.79198
830.71	36.9388
830.886	49.94024
831.063	47.13591
831.239	58.29571
831.415	29.32761
831.592	58.22271
831.768	39.08224
831.944	34.66489
832.12	65.49803
832.296	60.96811
832.473	51.3884
832.649	36.23664
832.825	51.51507
833.001	31.77397
833.177	43.78457
833.353	41.76503
833.529	24.46668
833.705	37.5808
833.881	25.6845
834.058	24.74338
834.234	26.24247
834.41	27.12423
834.586	20.95285
834.761	24.53672
834.937	27.76628
835.113	28.67997
835.289	25.48762
835.465	29.45194
835.641	26.58341
835.817	29.25376
835.993	47.19289
836.169	26.17
836.344	38.64338
836.52	44.455
836.696	41.74416
836.872	33.17502
837.048	91.4889
837.223	36.39649
837.399	68.00229
837.575	51.99664
837.75	49.36846
837.926	69.51599
838.102	101.4085
838.277	83.22009
838.453	110.72261
838.628	111.04464
838.804	44.88472
838.98	95.87488
839.155	51.19253
839.331	70.60484
839.506	50.3082
839.682	49.79679
839.857	72.02549
840.033	81.94962
840.208	40.03197
840.384	22.49701
840.559	40.12715
840.734	61.6741
840.91	78.3962
841.085	46.37483
841.26	47.88833
841.436	45.07197
841.611	42.08401
841.786	63.39339
841.962	81.92509
842.137	54.14848
842.312	32.36903
842.487	49.45355
842.663	41.84858
842.838	45.72873
843.013	153.34966
843.188	74.10236
843.363	62.73526
843.538	124.18983
843.714	128.45824
843.889	125.3333
844.064	139.0397
844.239	111.09665
844.414	127.43763
844.589	87.36585
844.764	159.02164
844.939	153.88682
845.114	170.24552
845.289	158.96326
845.464	227.17366
845.639	151.27105
845.814	74.96353
845.989	85.62433
846.163	108.80034
846.338	116.64934
846.513	155.93462
846.688	103.74636
846.863	104.19517
847.038	99.34653
847.212	113.59256
847.387	112.68847
847.562	123.3996
847.737	145.78764
847.911	58.61009
848.086	67.75061
848.261	222.36173
848.435	101.38067
848.61	152.72554
848.785	76.80659
848.959	155.94448
849.134	208.21575
849.308	219.4225
849.483	117.03656
849.658	184.24459
849.832	104.34605
850.007	89.80982
850.181	243.62982
850.356	90.4133
850.53	222.32569
850.705	70.15147
850.879	46.19031
851.053	111.31091
851.228	102.84264
851.402	126.22758
851.577	169.98341
851.751	179.9155
851.925	119.8079
852.099	64.45676
852.274	84.53991
852.448	111.75819
852.622	117.34751
852.797	115.38757
852.971	105.35714
853.145	119.00349
853.319	345.57021
853.493	169.8315
853.668	95.68699
853.842	219.82309
854.016	169.85465
854.19	210.75326
854.364	123.21332
854.538	133.56946
854.712	177.58243
854.886	110.92891
855.06	100.11662
855.234	37.57872
855.408	191.1127
855.582	162.30469
855.756	163.72983
855.93	213.77647
856.104	140.92276
856.278	162.69875
856.452	126.59174
856.626	159.95568
856.8	256.33011
856.973	146.75458
857.147	140.80353
857.321	142.24231
857.495	179.06609
857.669	113.594
857.842	100.31308
858.016	170.71849
858.19	85.38505
858.364	280.10217
858.537	103.23382
858.711	125.76467
858.885	109.58902
859.058	100.22779
859.232	55.64118
859.405	60.00296
859.579	166.29644
859.753	133.66096
859.926	98.634
860.1	68.84999
860.273	125.88247
860.447	198.79415
860.62	106.42708
860.794	242.06694
860.967	135.25961
861.141	180.03308
861.314	255.23332
861.487	149.67504
861.661	199.7781
861.834	201.75967
862.008	174.55422
862.181	123.06192
862.354	128.37921
862.528	140.43514
862.701	104.10686
862.874	71.48686
863.047	111.92713
863.221	108.94037
863.394	52.212
863.567	200.35085
863.74	45.40417
863.913	164.97027
864.087	137.57003
864.26	174.37316
864.433	125.09238
864.606	217.8718
864.779	126.86429
864.952	58.89199
865.125	100.91829
865.298	120.33517
865.471	125.38982
865.644	255.55779
865.817	204.88765
865.99	167.59496
866.163	192.63542
866.336	106.43874
866.509	126.25625
866.682	108.10201
866.855	180.8845
867.028	75.90645
867.2	157.72946
867.373	54.14978
867.546	137.33906
867.719	252.05959
867.892	156.09657
868.064	94.00454
868.237	149.46742
868.41	131.58086
868.583	79.76989
868.755	73.33833
868.928	122.40232
869.101	263.01259
869.273	187.27997
869.446	150.85101
869.619	182.7198
869.791	121.02786
869.964	187.94707
870.136	163.02389
870.309	135.79625
870.481	136.74059
870.654	63.54974
870.826	138.4273
870.999	106.56545
871.171	174.49867
871.344	101.84068
871.516	129.61821
871.689	92.10021
871.861	130.15316
872.033	95.77293
872.206	116.20008
872.378	180.52392
872.55	112.67392
872.723	80.01017
872.895	112.65838
873.067	182.22271
873.24	199.65032
873.412	106.5047
873.584	119.47244
873.756	110.93394
873.928	148.43719
874.101	143.05958
874.273	165.67974
874.445	54.0438
874.617	77.09016
874.789	138.25604
874.961	119.35085
875.133	156.75824
875.305	126.51208
875.477	88.73334
875.649	70.45711
875.821	89.60315
875.993	220.93692
876.165	89.64663
876.337	147.50757
876.509	113.65934
876.681	147.40082
876.853	139.88603
877.025	140.96384
877.197	92.54793
877.369	82.94229
877.541	172.78113
877.712	50.20481
877.884	78.75017
878.056	161.08581
878.228	85.36794
878.4	153.38698
878.571	85.85927
878.743	61.6117
878.915	141.91111
879.086	80.78401
879.258	103.38388
879.43	94.75705
879.601	84.01248
879.773	87.46199
879.945	23.31951
880.116	39.08914
880.288	25.38658
880.459	27.87491
880.631	21.82961
880.802	26.31689
880.974	24.48467
881.145	18.22349
881.317	23.22103
881.488	17.73475
881.66	20.11797
881.831	18.16905
882.002	25.22074
882.174	18.9253
882.345	23.86265
882.517	13.61771
882.688	27.31438
882.859	23.12224
883.03	36.24728
883.202	33.8917
883.373	29.80862
883.544	30.66872
883.715	50.22144
883.887	41.89863
884.058	35.49639
884.229	51.63705
884.4	52.65243
884.571	56.38731
884.742	51.89258
884.914	55.01662
885.085	79.2728
885.256	96.15447
885.427	79.82027
885.598	92.56639
885.769	98.80169
885.94	92.74464
886.111	63.00626
886.282	114.75097
886.453	93.20459
886.624	67.93436
886.795	114.01883
886.966	95.99645
887.136	121.10874
887.307	79.04524
887.478	154.16403
887.649	136.39035
887.82	142.44089
887.991	111.84869
888.161	153.06904
888.332	148.99809
888.503	76.38654
888.674	190.56191
888.844	208.56369
889.015	165.33815
889.186	79.42825
889.356	190.92137
889.527	71.58193
889.698	342.35253
889.868	113.33878
890.039	146.07691
890.209	119.27954
890.38	173.42329
890.551	140.34588
890.721	202.10863
890.892	167.67119
891.062	115.27511
891.233	147.97108
891.403	107.47168
891.574	88.47088
891.744	123.23759
891.914	159.72447
892.085	131.94954
892.255	43.43745
892.425	210.12802
892.596	160.12299
892.766	156.43666
892.936	203.80669
893.107	177.38618
893.277	95.15591
893.447	71.36242
893.618	57.48155
893.788	112.34001
893.958	61.69287
894.128	63.32653
894.298	71.79925
894.468	98.65532
894.639	44.18299
894.809	32.27989
894.979	49.78386
895.149	59.92092
895.319	48.15513
895.489	69.26123
895.659	80.86786
895.829	56.26788
895.999	56.74614
896.169	43.24502
896.339	54.76794
896.509	109.4075
896.679	122.37812
896.849	113.64437
897.019	166.74117
897.189	126.85387
897.358	115.14034
897.528	166.46786
897.698	58.56284
897.868	156.5595
898.038	265.77136
898.208	246.64326
898.377	77.6944
898.547	252.045
898.717	386.22608
898.886	150.4404
899.056	253.33909
899.226	377.70194
899.395	221.40385
899.565	287.79437
899.735	190.88472
899.904	316.32739
900.074	259.80915
900.244	120.40978
900.413	488.96309
900.583	115.93378
900.752	169.41335
900.922	284.03732
901.091	32.58581
901.261	260.12957
901.43	238.92165
901.599	239.75773
901.769	532.05409
901.938	275.76101
902.108	266.22467
902.277	353.86343
902.446	100.64631
902.616	107.7421
902.785	161.22641
902.954	275.87089
903.124	185.96081
903.293	143.80612
903.462	82.86985
903.631	110.91298
903.801	81.92193
903.97	45.6711
904.139	76.5526
904.308	57.89335
904.477	46.17622
904.646	28.89703
904.816	45.56581
904.985	61.97701
905.154	96.20441
