Data from WindowProjectSample3_Transmission__6__00006.txt Node

Date: Sun May 04 09:45:37 EDT 2025
User: jessi
Spectrometer: SR400872
Trigger mode: 0
Integration Time (sec): 5.000070E-1
Scans to average: 20
Electric dark correction enabled: true
Nonlinearity correction enabled: true
Boxcar width: 0
XAxis mode: Wavelengths
Number of Pixels in Spectrum: 3648
>>>>>Begin Spectral Data<<<<<
184.909	-5740.79983
185.132	10932.64537
185.355	-8185.87183
185.578	-55078.06308
185.801	3173.57532
186.024	-131930.2917
186.247	-763.26669
186.47	1342.08163
186.693	755.57266
186.916	-592.3038
187.139	-2509710.52285
187.362	-3047.16418
187.585	8109.08049
187.808	1970.29057
188.031	-156.66655
188.254	4406.9009
188.476	-1720.73293
188.699	2381.92698
188.922	469.10977
189.145	-5816.8644
189.368	-4104.35652
189.591	1605.66837
189.813	-142417.77893
190.036	9298.48214
190.259	1470.46523
190.482	5975.16325
190.705	17062.45269
190.927	17090.16931
191.15	-4140.55039
191.373	2010.03178
191.595	1527.62749
191.818	17979.82119
192.041	861.48664
192.263	-7434.2674
192.486	-1746.17052
192.709	2919.29146
192.931	-3427.00277
193.154	13578.37231
193.377	2547.13173
193.599	27357.57173
193.822	2222.69549
194.044	2053.35836
194.267	1031.62501
194.489	-42.62919
194.712	3531.17344
194.934	33954.57372
195.157	-542.69923
195.379	10589.5118
195.602	1794.78388
195.824	4510.66932
196.047	6353.44988
196.269	13804.87466
196.492	-11155.12289
196.714	3918.74024
196.936	7009.61402
197.159	10706.15035
197.381	4061.10069
197.604	1894462.84958
197.826	1938.80674
198.048	2155.35651
198.271	10059.85142
198.493	2009.99552
198.715	2773.74264
198.938	8135.24185
199.16	3282.16813
199.382	9567.2517
199.604	9443.2087
199.827	1773.46804
200.049	3021.83835
200.271	20190.95699
200.493	1768.5047
200.715	7255.53702
200.938	7874.17226
201.16	-3686.34328
201.382	31849.4312
201.604	4100.72861
201.826	8343.31696
202.048	4440.65137
202.27	1923.86661
202.492	5645.29257
202.715	20445.94596
202.937	3816.48685
203.159	1535.11444
203.381	2088.33651
203.603	2747.02082
203.825	-1432.14344
204.047	-22856.79876
204.269	3619.97445
204.491	7078.1785
204.713	-1711458.63409
204.935	2268.05148
205.156	3847.72379
205.378	1735.99867
205.6	36439.90083
205.822	4659.84431
206.044	3289.21018
206.266	5764.82346
206.488	1547.34617
206.71	9338.52757
206.932	1431.5574
207.153	29231.17574
207.375	16176.40764
207.597	12480.94505
207.819	38827.51723
208.041	-44507.57946
208.262	1154.89707
208.484	12918.1618
208.706	3337.66546
208.927	2192.28875
209.149	931.73044
209.371	3678.11775
209.593	782.81517
209.814	9915.42553
210.036	-461430.3739
210.258	1527.03239
210.479	2207.62753
210.701	3222.36761
210.922	-5502.77583
211.144	-3124.27834
211.366	5137.37891
211.587	2551.54889
211.809	5759.52077
212.03	-62972.63949
212.252	448.86809
212.473	965.65356
212.695	758.8525
212.916	1244.56554
213.138	583.97778
213.359	4925.76976
213.581	2915.42344
213.802	800.17278
214.024	7861.18615
214.245	-13719.82534
214.466	461.74546
214.688	3906.83792
214.909	10751.88442
215.131	4203.15693
215.352	2505.47532
215.573	11875.72486
215.795	2126.70793
216.016	1950.67729
216.237	-756379.32511
216.459	2090.6183
216.68	5908.4715
216.901	3212.32814
217.122	760.35546
217.344	3046.62761
217.565	7003.21101
217.786	3511.26554
218.007	894.27293
218.228	2376.06701
218.45	-16392.73938
218.671	48917.87875
218.892	19548.82516
219.113	1713.57795
219.334	6531.80085
219.555	-8427.53136
219.776	1839.37457
219.997	4051.19318
220.219	1075.05077
220.44	1603.05832
220.661	1566.35931
220.882	5929.37701
221.103	1468.72904
221.324	7909.89367
221.545	3221.75342
221.766	3146.18499
221.987	1573.50289
222.208	944.15816
222.429	2302.71621
222.65	205.2674
222.87	798.58293
223.091	1772.30858
223.312	1047.53851
223.533	2102.28824
223.754	1603.41442
223.975	1715.10963
224.196	977.87921
224.417	5279.04784
224.637	671.75199
224.858	77.62923
225.079	1186.78739
225.3	633.98526
225.521	2275.52798
225.741	629.11645
225.962	629.52166
226.183	179.64488
226.404	1021.03944
226.624	573.89957
226.845	636.6508
227.066	455.89573
227.286	309.70102
227.507	187.67726
227.728	155.50486
227.948	276.82544
228.169	89.19724
228.389	102.74654
228.61	61.3667
228.831	82.98054
229.051	8.17503
229.272	49.53528
229.492	73.52684
229.713	21.16224
229.933	52.04399
230.154	44.35025
230.374	76.18318
230.595	56.25728
230.815	33.4232
231.036	60.23172
231.256	-8.51501
231.477	97.91777
231.697	57.29045
231.917	61.90253
232.138	86.43444
232.358	155.96914
232.579	152.85148
232.799	23.3339
233.019	131.18439
233.24	159.2877
233.46	60.64407
233.68	88.50281
233.901	62.37514
234.121	45.80152
234.341	17.1177
234.561	-2.53009
234.782	29.72898
235.002	98.30009
235.222	-3.53311
235.442	91.53448
235.662	48.34505
235.883	88.45053
236.103	75.96201
236.323	54.44421
236.543	41.02894
236.763	60.84783
236.983	62.11058
237.203	57.70181
237.423	90.35492
237.643	126.15965
237.864	109.44572
238.084	31.10816
238.304	38.7412
238.524	63.18973
238.744	56.64117
238.964	101.46009
239.184	87.87513
239.404	94.05265
239.624	51.1417
239.843	80.70296
240.063	49.48452
240.283	30.88336
240.503	34.22385
240.723	34.39569
240.943	23.41551
241.163	27.70612
241.383	20.37968
241.603	10.25979
241.822	12.22502
242.042	9.08698
242.262	11.95093
242.482	13.36107
242.702	15.70185
242.921	5.03491
243.141	10.70579
243.361	9.44075
243.581	14.00563
243.8	11.88546
244.02	8.21758
244.24	14.67064
244.459	13.90096
244.679	28.17161
244.899	18.13566
245.118	20.9294
245.338	20.17961
245.558	20.91884
245.777	12.42341
245.997	14.04366
246.216	14.32426
246.436	8.66026
246.655	5.90029
246.875	4.53766
247.094	8.48279
247.314	3.40823
247.533	5.68373
247.753	6.27221
247.972	5.44496
248.192	1.58484
248.411	3.21243
248.631	5.64646
248.85	7.13244
249.07	6.47974
249.289	9.41244
249.508	7.47243
249.728	11.45164
249.947	11.23802
250.166	14.14237
250.386	7.30202
250.605	10.27521
250.824	17.02877
251.044	12.25556
251.263	35.61169
251.482	21.17442
251.701	17.11933
251.921	-0.03225
252.14	5.51075
252.359	6.75233
252.578	14.91628
252.798	6.18475
253.017	13.47685
253.236	6.94582
253.455	8.77719
253.674	18.41605
253.893	7.99288
254.112	12.81181
254.331	18.08136
254.551	14.7763
254.77	8.02903
254.989	20.46134
255.208	15.93296
255.427	23.80009
255.646	19.40927
255.865	31.51986
256.084	14.35748
256.303	16.23925
256.522	20.28337
256.741	3.73749
256.96	4.4638
257.179	13.78351
257.397	16.32371
257.616	9.22849
257.835	9.69706
258.054	22.03965
258.273	14.92581
258.492	15.65522
258.711	9.34671
258.93	4.6065
259.148	6.36368
259.367	5.98564
259.586	7.96625
259.805	3.55474
260.023	7.05535
260.242	5.20757
260.461	4.10775
260.68	2.10083
260.898	6.33764
261.117	2.10604
261.336	1.38544
261.554	5.57782
261.773	5.79052
261.992	1.63617
262.21	5.55229
262.429	6.72962
262.648	10.73821
262.866	12.32771
263.085	9.19766
263.303	7.21156
263.522	13.44057
263.74	13.51169
263.959	22.66282
264.178	12.39157
264.396	10.26775
264.615	7.72172
264.833	17.15577
265.051	13.88882
265.27	16.08661
265.488	15.70183
265.707	9.03918
265.925	15.27735
266.144	7.27868
266.362	8.68271
266.58	8.72373
266.799	7.0314
267.017	9.00723
267.235	7.52447
267.454	4.97853
267.672	2.75473
267.89	6.97206
268.109	6.7931
268.327	7.2262
268.545	1.72631
268.763	6.33897
268.982	3.19152
269.2	7.11222
269.418	4.59421
269.636	3.54428
269.854	7.00799
270.073	5.03436
270.291	3.01117
270.509	2.9735
270.727	6.80619
270.945	10.52173
271.163	10.56862
271.381	2.72736
271.599	4.61289
271.817	7.70397
272.036	2.61967
272.254	4.799
272.472	3.70865
272.69	3.55107
272.908	3.92012
273.126	6.24125
273.344	7.94616
273.562	2.63477
273.779	4.12663
273.997	6.62216
274.215	6.44542
274.433	4.61166
274.651	7.06473
274.869	6.95694
275.087	4.13105
275.305	6.07043
275.523	4.29136
275.74	4.59637
275.958	8.2848
276.176	12.13105
276.394	3.82319
276.612	5.01699
276.829	5.17213
277.047	4.68809
277.265	4.91269
277.483	5.78989
277.7	6.24372
277.918	5.07104
278.136	9.4321
278.353	4.40553
278.571	2.84964
278.789	7.0177
279.006	1.65687
279.224	4.1151
279.442	7.32531
279.659	5.37421
279.877	3.62348
280.094	8.2391
280.312	1.76716
280.529	5.57203
280.747	1.81949
280.964	4.17866
281.182	8.54767
281.399	4.33403
281.617	5.45708
281.834	3.94944
282.052	2.76824
282.269	4.89037
282.487	3.75734
282.704	3.46261
282.921	3.3771
283.139	4.89645
283.356	6.31489
283.574	5.91633
283.791	3.00371
284.008	7.92946
284.226	4.60513
284.443	5.14824
284.66	6.26696
284.877	5.17204
285.095	3.28804
285.312	2.29685
285.529	1.52061
285.746	1.23421
285.964	3.18914
286.181	2.11425
286.398	2.90287
286.615	4.12299
286.832	3.98125
287.05	1.16111
287.267	2.91148
287.484	2.95841
287.701	4.07137
287.918	3.98929
288.135	4.19146
288.352	1.69566
288.569	2.27006
288.786	3.75137
289.003	2.8947
289.22	4.24581
289.437	2.38249
289.654	4.40594
289.871	4.4241
290.088	4.36426
290.305	3.42886
290.522	2.79889
290.739	3.0143
290.956	4.72899
291.173	5.57791
291.39	5.30933
291.607	3.55894
291.824	2.79239
292.04	2.04895
292.257	4.5474
292.474	4.92953
292.691	3.1991
292.908	1.54997
293.125	2.52523
293.341	1.5825
293.558	7.53292
293.775	2.90765
293.992	3.13476
294.208	1.29989
294.425	2.21439
294.642	2.78563
294.858	3.81496
295.075	1.16029
295.292	2.92927
295.508	3.55539
295.725	5.31162
295.942	2.66832
296.158	1.73346
296.375	3.03585
296.591	2.3579
296.808	2.4074
297.024	2.81399
297.241	3.24368
297.458	3.47066
297.674	0.32726
297.891	2.75418
298.107	2.18346
298.323	1.61798
298.54	4.02945
298.756	2.1614
298.973	0.91616
299.189	4.50458
299.406	1.92803
299.622	4.4411
299.838	4.3352
300.055	3.94484
300.271	0.93981
300.487	1.60979
300.704	1.87947
300.92	1.12062
301.136	5.73656
301.353	4.47051
301.569	3.01327
301.785	3.43086
302.001	4.10562
302.218	3.60057
302.434	3.67349
302.65	1.14597
302.866	2.35443
303.083	5.9306
303.299	5.8696
303.515	2.92554
303.731	3.30918
303.947	1.22223
304.163	2.16145
304.379	3.12267
304.595	3.6741
304.812	2.00083
305.028	1.82183
305.244	2.52958
305.46	4.18805
305.676	4.08877
305.892	4.74516
306.108	3.64392
306.324	2.60605
306.54	5.75115
306.756	3.75816
306.972	3.80002
307.187	2.72147
307.403	5.16458
307.619	2.33205
307.835	4.76617
308.051	4.82426
308.267	1.57451
308.483	4.41102
308.699	3.54432
308.914	3.11834
309.13	2.9536
309.346	0.99657
309.562	1.57574
309.778	0.95017
309.993	3.70311
310.209	2.78055
310.425	1.34186
310.641	2.49174
310.856	1.54095
311.072	1.43297
311.288	2.7635
311.503	3.08274
311.719	0.82285
311.935	0.55662
312.15	3.28493
312.366	2.97398
312.581	3.62232
312.797	2.92345
313.013	3.99346
313.228	2.17726
313.444	2.89076
313.659	2.08079
313.875	3.66496
314.09	2.88074
314.306	5.04654
314.521	4.09319
314.737	3.96055
314.952	3.25902
315.168	3.11195
315.383	3.71994
315.599	2.65264
315.814	2.51211
316.029	4.02216
316.245	1.4782
316.46	0.94896
316.675	4.87621
316.891	5.73749
317.106	7.25216
317.321	3.86357
317.537	3.92951
317.752	4.13839
317.967	4.28483
318.183	2.07694
318.398	2.81043
318.613	4.56166
318.828	4.98784
319.043	4.45551
319.259	2.8147
319.474	3.49022
319.689	4.91363
319.904	0.75401
320.119	4.24005
320.334	3.65473
320.549	2.91463
320.765	4.96565
320.98	3.58817
321.195	4.27483
321.41	3.21068
321.625	4.3294
321.84	5.6673
322.055	5.37944
322.27	2.39014
322.485	1.88118
322.7	3.73627
322.915	4.72135
323.13	2.17236
323.345	5.36068
323.56	4.11696
323.775	4.2269
323.989	3.91974
324.204	3.63358
324.419	4.37663
324.634	1.65839
324.849	3.08015
325.064	6.38934
325.279	4.49272
325.493	4.06851
325.708	4.56862
325.923	2.29555
326.138	2.56826
326.352	5.42866
326.567	4.5684
326.782	2.71459
326.997	2.31439
327.211	4.22991
327.426	3.90095
327.641	2.93047
327.855	1.25776
328.07	4.0612
328.285	5.78113
328.499	2.86189
328.714	3.93655
328.928	4.37409
329.143	3.31013
329.358	5.04166
329.572	4.7082
329.787	5.31698
330.001	6.92714
330.216	1.70675
330.43	5.92192
330.645	5.583
330.859	4.69464
331.074	2.42679
331.288	3.78685
331.503	5.43447
331.717	1.94808
331.931	3.31981
332.146	3.64459
332.36	6.15715
332.575	4.01383
332.789	3.86407
333.003	3.36375
333.218	4.18327
333.432	2.68072
333.646	4.56399
333.86	5.52903
334.075	6.0015
334.289	2.65665
334.503	2.14723
334.717	4.43474
334.932	3.94922
335.146	5.02135
335.36	2.98378
335.574	4.80825
335.788	4.4844
336.003	5.43495
336.217	5.07245
336.431	4.37829
336.645	3.02811
336.859	2.21106
337.073	3.4455
337.287	3.81162
337.501	2.0279
337.715	3.70219
337.929	4.09132
338.143	1.9604
338.357	3.219
338.571	2.49483
338.785	4.26235
338.999	2.78877
339.213	2.99463
339.427	2.00946
339.641	5.29892
339.855	3.15774
340.069	2.85991
340.283	4.95358
340.497	5.85726
340.711	4.26607
340.924	3.52635
341.138	2.26945
341.352	1.78912
341.566	3.74674
341.78	1.5904
341.993	2.92501
342.207	2.40331
342.421	3.93101
342.635	3.44113
342.848	2.78277
343.062	0.66496
343.276	2.79537
343.49	6.28356
343.703	2.66681
343.917	4.8188
344.131	4.73889
344.344	2.56158
344.558	3.04119
344.771	2.23396
344.985	5.11112
345.199	5.6451
345.412	3.89906
345.626	4.12342
345.839	1.43684
346.053	2.20783
346.266	2.42433
346.48	4.50636
346.693	4.07186
346.907	4.13785
347.12	2.29745
347.334	3.94626
347.547	3.99697
347.76	3.39695
347.974	5.19961
348.187	4.00944
348.401	3.18955
348.614	2.81821
348.827	3.14156
349.041	4.39282
349.254	1.62335
349.467	3.27165
349.681	2.21341
349.894	2.6946
350.107	5.03167
350.32	5.72654
350.534	1.8443
350.747	3.22653
350.96	2.52844
351.173	2.81186
351.386	2.99594
351.6	3.1999
351.813	2.8906
352.026	3.67017
352.239	2.03432
352.452	3.29839
352.665	4.75447
352.878	3.12111
353.092	6.19175
353.305	4.43754
353.518	3.72873
353.731	2.52325
353.944	4.71593
354.157	3.03103
354.37	2.60526
354.583	2.25366
354.796	1.84372
355.009	4.91624
355.222	3.53726
355.435	3.52003
355.647	4.78153
355.86	2.5079
356.073	3.61752
356.286	3.01883
356.499	4.38883
356.712	4.10257
356.925	4.0603
357.138	4.67826
357.35	2.39383
357.563	3.04831
357.776	3.61918
357.989	3.33476
358.201	4.15186
358.414	3.8976
358.627	5.00549
358.84	3.21719
359.052	2.24348
359.265	2.41943
359.478	4.63684
359.69	0.7546
359.903	4.44497
360.116	4.55874
360.328	1.72895
360.541	4.3079
360.753	2.50438
360.966	2.98762
361.179	3.09918
361.391	2.87448
361.604	2.40004
361.816	2.918
362.029	2.79552
362.241	2.43287
362.454	3.04036
362.666	2.45346
362.879	3.66946
363.091	3.05575
363.304	2.74508
363.516	3.3348
363.728	2.04367
363.941	4.17946
364.153	3.2854
364.366	1.24126
364.578	2.26989
364.79	4.11874
365.003	3.62077
365.215	3.14857
365.427	4.01847
365.639	4.93238
365.852	3.80204
366.064	5.56311
366.276	3.24519
366.488	4.12542
366.701	3.24566
366.913	3.49645
367.125	3.1024
367.337	2.95147
367.549	3.01106
367.762	3.70247
367.974	3.5319
368.186	3.24666
368.398	4.86412
368.61	4.39114
368.822	4.41741
369.034	3.65756
369.246	4.62316
369.458	6.77643
369.67	2.61216
369.882	5.93637
370.094	1.5496
370.306	5.55356
370.518	3.43587
370.73	3.35224
370.942	3.00355
371.154	3.67238
371.366	3.27858
371.578	4.40745
371.79	3.34349
372.002	5.10639
372.214	6.10152
372.425	4.03721
372.637	5.55664
372.849	4.50494
373.061	1.69132
373.273	4.48404
373.484	4.3602
373.696	4.93968
373.908	1.53177
374.12	5.09271
374.331	4.64876
374.543	3.20358
374.755	2.87762
374.967	4.09712
375.178	4.98326
375.39	3.8387
375.602	4.24697
375.813	2.58374
376.025	2.85404
376.236	4.08297
376.448	4.47044
376.66	3.86513
376.871	3.85101
377.083	5.11174
377.294	5.80509
377.506	3.68603
377.717	5.61687
377.929	4.49517
378.14	3.54918
378.352	4.80983
378.563	4.8953
378.775	5.79009
378.986	3.45255
379.197	4.71378
379.409	3.71795
379.62	5.19413
379.832	4.63704
380.043	4.22451
380.254	4.66016
380.466	3.25456
380.677	7.44252
380.888	6.89749
381.1	7.22756
381.311	7.34265
381.522	4.64398
381.733	7.65828
381.945	4.26371
382.156	4.61526
382.367	4.13163
382.578	7.73693
382.789	7.94643
383.001	4.12528
383.212	6.58328
383.423	6.70751
383.634	5.97249
383.845	5.42741
384.056	4.47723
384.267	5.1583
384.478	4.75957
384.69	3.69433
384.901	5.4254
385.112	5.23247
385.323	6.83558
385.534	5.47197
385.745	5.42361
385.956	5.4183
386.167	4.02213
386.378	5.54642
386.588	4.24048
386.799	4.2919
387.01	3.53575
387.221	6.12293
387.432	5.15801
387.643	7.20233
387.854	4.95322
388.065	4.95337
388.275	5.11155
388.486	4.80909
388.697	5.24902
388.908	4.98018
389.119	6.58014
389.329	7.19543
389.54	5.47898
389.751	5.73963
389.962	6.65604
390.172	5.56869
390.383	5.2927
390.594	4.9321
390.804	4.88526
391.015	5.09141
391.226	5.69517
391.436	6.26217
391.647	5.89675
391.858	6.39409
392.068	4.07606
392.279	4.71889
392.489	6.04534
392.7	6.71866
392.91	4.83454
393.121	5.08243
393.331	6.29233
393.542	7.15174
393.752	6.35376
393.963	6.207
394.173	6.21869
394.384	6.68584
394.594	6.0761
394.804	4.89533
395.015	6.24126
395.225	6.71045
395.436	5.02279
395.646	6.57421
395.856	5.59241
396.067	4.75214
396.277	7.1675
396.487	6.73102
396.697	6.5127
396.908	7.0421
397.118	6.86778
397.328	6.37802
397.538	7.29746
397.749	5.68489
397.959	7.33984
398.169	6.91637
398.379	5.06124
398.589	6.98763
398.8	6.68401
399.01	6.72966
399.22	6.30214
399.43	8.86748
399.64	6.48914
399.85	7.08361
400.06	6.61529
400.27	5.81007
400.48	6.5936
400.69	8.00786
400.9	6.30559
401.11	5.93659
401.32	7.52072
401.53	6.25944
401.74	8.33996
401.95	7.58631
402.16	6.40653
402.37	7.41782
402.58	6.37981
402.79	7.30978
403	7.77354
403.209	6.25293
403.419	7.79775
403.629	6.47906
403.839	8.01266
404.049	8.11591
404.258	6.58667
404.468	6.37176
404.678	7.79102
404.888	8.26266
405.097	6.85125
405.307	7.22274
405.517	7.87078
405.727	7.86445
405.936	6.98177
406.146	7.49086
406.356	8.75822
406.565	7.33606
406.775	6.94232
406.984	7.03046
407.194	9.20975
407.404	7.57833
407.613	7.78257
407.823	8.28114
408.032	8.83684
408.242	8.5767
408.451	7.05972
408.661	7.48892
408.87	9.22225
409.08	7.13595
409.289	8.06953
409.499	8.04429
409.708	7.82322
409.918	5.74822
410.127	7.91734
410.336	9.219
410.546	8.54942
410.755	7.43539
410.964	7.42745
411.174	6.97331
411.383	8.34609
411.592	8.24583
411.802	6.98266
412.011	8.6322
412.22	7.86941
412.429	9.58313
412.639	9.26771
412.848	8.98659
413.057	9.59246
413.266	9.05226
413.475	8.203
413.685	8.73309
413.894	8.97633
414.103	9.19958
414.312	8.86376
414.521	7.95521
414.73	8.43728
414.939	10.02964
415.148	8.72844
415.357	8.64956
415.566	8.07473
415.776	7.93433
415.985	7.98909
416.194	9.17363
416.403	10.11956
416.611	7.34461
416.82	8.06075
417.029	8.76178
417.238	8.0782
417.447	8.04817
417.656	8.38331
417.865	8.0052
418.074	8.55593
418.283	8.78205
418.492	9.57078
418.7	9.42574
418.909	10.32923
419.118	9.03295
419.327	9.36145
419.536	9.06893
419.744	8.58685
419.953	9.83129
420.162	9.87808
420.371	8.89521
420.579	9.34735
420.788	10.31498
420.997	10.3747
421.205	10.53335
421.414	10.25958
421.623	10.18574
421.831	9.74579
422.04	10.47973
422.249	9.31805
422.457	9.84658
422.666	9.07456
422.874	10.14872
423.083	10.3127
423.291	10.20251
423.5	10.16667
423.708	10.42155
423.917	11.00771
424.125	10.35174
424.334	10.13417
424.542	12.11219
424.751	11.27818
424.959	10.76021
425.167	11.06765
425.376	10.746
425.584	9.77559
425.793	10.06453
426.001	9.06414
426.209	10.40572
426.418	9.18087
426.626	9.32098
426.834	9.11158
427.042	9.5914
427.251	9.10368
427.459	10.38045
427.667	9.88061
427.875	8.62412
428.084	9.16003
428.292	10.61923
428.5	10.18554
428.708	8.74291
428.916	8.86028
429.124	9.61664
429.333	9.38999
429.541	9.31462
429.749	9.6601
429.957	9.65509
430.165	11.69429
430.373	8.49945
430.581	9.75195
430.789	10.82935
430.997	9.32406
431.205	9.03828
431.413	9.85873
431.621	9.50695
431.829	10.37703
432.037	9.48976
432.245	10.24842
432.453	10.03523
432.661	9.66586
432.869	11.41529
433.076	9.2045
433.284	9.75406
433.492	10.59926
433.7	10.96749
433.908	9.63857
434.116	10.03484
434.323	10.14238
434.531	9.96267
434.739	10.62799
434.947	10.81378
435.154	10.62035
435.362	10.11729
435.57	9.79152
435.778	9.53005
435.985	10.42177
436.193	9.53023
436.401	11.0825
436.608	10.04287
436.816	9.73161
437.023	11.42155
437.231	11.53508
437.439	10.25264
437.646	10.73318
437.854	10.37213
438.061	10.73634
438.269	9.97711
438.476	10.72695
438.684	10.34187
438.891	10.02835
439.099	9.85353
439.306	9.26692
439.514	9.4707
439.721	10.68023
439.929	9.87083
440.136	10.61218
440.343	10.5196
440.551	10.07367
440.758	11.88326
440.965	10.92488
441.173	10.48032
441.38	10.00743
441.587	10.71936
441.795	10.15538
442.002	10.64029
442.209	10.71813
442.416	10.90289
442.624	10.93995
442.831	10.81328
443.038	10.15906
443.245	9.70606
443.452	10.05777
443.66	10.99637
443.867	9.94023
444.074	10.0175
444.281	9.87722
444.488	10.23078
444.695	10.39389
444.902	10.09726
445.109	11.01968
445.316	10.28271
445.523	10.18044
445.73	9.96524
445.937	10.90962
446.144	11.39413
446.351	11.53204
446.558	10.35813
446.765	12.14966
446.972	11.69445
447.179	10.99772
447.386	11.84153
447.593	10.37336
447.8	11.48369
448.007	10.52575
448.214	10.64023
448.42	10.23233
448.627	11.53693
448.834	10.59092
449.041	10.39098
449.248	10.28054
449.454	11.28764
449.661	12.12435
449.868	10.32645
450.075	10.13454
450.281	8.97968
450.488	9.66017
450.695	9.7406
450.901	9.89087
451.108	10.06374
451.315	11.43081
451.521	10.44985
451.728	11.418
451.935	10.01
452.141	10.33244
452.348	10.44041
452.554	10.48064
452.761	10.3767
452.967	11.90246
453.174	10.75062
453.38	10.91833
453.587	9.63035
453.793	10.70199
454	11.175
454.206	12.38238
454.413	11.53495
454.619	10.95427
454.825	9.98805
455.032	11.09863
455.238	11.31197
455.445	9.63147
455.651	10.72954
455.857	9.07248
456.064	10.47379
456.27	10.40909
456.476	10.49359
456.682	9.46927
456.889	10.91367
457.095	11.23977
457.301	12.63614
457.507	10.68021
457.714	10.82086
457.92	10.69111
458.126	9.99038
458.332	10.59216
458.538	10.26075
458.744	10.45787
458.951	10.45467
459.157	11.95989
459.363	10.87266
459.569	10.69413
459.775	11.26357
459.981	10.59931
460.187	11.02075
460.393	11.41189
460.599	11.83693
460.805	11.12907
461.011	11.02166
461.217	11.90156
461.423	12.02743
461.629	10.86026
461.835	11.56649
462.041	10.82469
462.247	12.38859
462.453	10.68621
462.658	10.73741
462.864	11.43467
463.07	10.96189
463.276	11.18446
463.482	11.09274
463.688	12.12052
463.893	10.22118
464.099	10.68232
464.305	12.25773
464.511	10.57119
464.716	10.94358
464.922	11.56536
465.128	10.23678
465.333	12.49238
465.539	11.44762
465.745	10.90923
465.95	11.02559
466.156	13.49971
466.362	11.89614
466.567	10.99409
466.773	10.48192
466.978	12.37815
467.184	10.22625
467.389	9.37602
467.595	11.4875
467.8	10.38765
468.006	12.35953
468.211	12.04699
468.417	10.11462
468.622	11.52707
468.828	11.51337
469.033	11.27833
469.239	13.57859
469.444	10.77429
469.649	11.91169
469.855	11.06657
470.06	11.33335
470.266	10.32189
470.471	11.77264
470.676	11.53032
470.881	9.8708
471.087	12.00413
471.292	12.83771
471.497	10.03156
471.703	10.90455
471.908	10.68295
472.113	11.13139
472.318	11.86444
472.523	10.32165
472.729	11.41042
472.934	11.50784
473.139	10.73167
473.344	11.40475
473.549	12.3832
473.754	10.3553
473.959	12.94752
474.164	10.42592
474.369	11.02056
474.575	11.85386
474.78	11.17672
474.985	10.61275
475.19	9.70224
475.395	10.46202
475.6	11.02831
475.804	12.20443
476.009	11.26235
476.214	11.17562
476.419	10.793
476.624	9.84176
476.829	10.49224
477.034	11.61851
477.239	10.60434
477.444	11.32635
477.648	11.57523
477.853	11.68633
478.058	10.91496
478.263	10.52726
478.468	10.24937
478.672	10.38975
478.877	12.25701
479.082	12.63934
479.287	11.50284
479.491	11.292
479.696	10.2856
479.901	11.8799
480.105	11.69809
480.31	10.53143
480.515	11.14112
480.719	12.99014
480.924	10.66238
481.128	10.16911
481.333	11.26698
481.538	11.26962
481.742	10.71423
481.947	11.34163
482.151	11.85978
482.356	12.61065
482.56	15.03959
482.765	16.84796
482.969	19.90635
483.174	22.32116
483.378	25.45857
483.582	25.89768
483.787	27.44353
483.991	27.45399
484.196	27.54307
484.4	26.64953
484.604	26.35506
484.809	23.47625
485.013	21.79986
485.217	19.29129
485.422	17.23678
485.626	15.83547
485.83	15.31379
486.034	15.21923
486.239	15.89968
486.443	16.42237
486.647	17.07308
486.851	18.28963
487.055	19.65705
487.26	19.3355
487.464	20.30799
487.668	19.58059
487.872	19.71297
488.076	19.96755
488.28	18.80112
488.484	17.46113
488.688	16.79739
488.892	15.89196
489.096	14.85425
489.3	13.44965
489.504	12.65694
489.708	12.43987
489.912	12.3193
490.116	12.12197
490.32	11.93529
490.524	13.49767
490.728	14.33126
490.932	15.19002
491.136	15.82163
491.34	17.01004
491.544	17.27302
491.748	16.75216
491.951	16.69934
492.155	16.093
492.359	15.48846
492.563	13.6962
492.767	12.67628
492.97	11.47335
493.174	10.91583
493.378	11.22298
493.582	10.75995
493.785	11.19081
493.989	11.46379
494.193	11.29934
494.396	10.90112
494.6	11.684
494.804	11.10872
495.007	10.64611
495.211	10.61575
495.414	10.84748
495.618	11.23277
495.822	12.05581
496.025	10.96401
496.229	11.61254
496.432	10.56801
496.636	11.0021
496.839	10.99297
497.043	12.1889
497.246	11.20812
497.45	10.75448
497.653	10.91282
497.856	11.25774
498.06	10.29341
498.263	10.84801
498.467	10.76317
498.67	11.92322
498.873	11.50939
499.077	10.76522
499.28	10.76955
499.483	11.2306
499.686	11.71134
499.89	11.14595
500.093	11.58588
500.296	10.47372
500.499	12.20656
500.703	10.94341
500.906	11.21376
501.109	12.44538
501.312	11.12643
501.515	10.87225
501.719	11.26359
501.922	12.09942
502.125	11.20274
502.328	11.00339
502.531	9.99553
502.734	10.87328
502.937	9.52253
503.14	10.99063
503.343	10.08566
503.546	10.62505
503.749	10.22865
503.952	11.19428
504.155	10.22495
504.358	11.38914
504.561	10.92768
504.764	9.90936
504.967	10.99678
505.17	10.89219
505.373	12.25699
505.576	10.94112
505.778	11.37283
505.981	10.28
506.184	11.84551
506.387	9.55015
506.59	12.24915
506.793	11.83294
506.995	11.21248
507.198	9.46349
507.401	11.15864
507.604	11.20469
507.806	10.12809
508.009	10.34044
508.212	11.3852
508.414	10.36083
508.617	10.44426
508.82	10.86004
509.022	12.00161
509.225	11.03979
509.427	9.70939
509.63	11.93152
509.833	10.9123
510.035	10.60982
510.238	9.64521
510.44	11.71607
510.643	9.24467
510.845	12.65275
511.048	11.17469
511.25	10.48555
511.453	10.78563
511.655	11.16224
511.858	10.59448
512.06	11.46778
512.262	10.90211
512.465	11.49262
512.667	10.48501
512.869	9.75068
513.072	11.06186
513.274	11.39663
513.476	11.38918
513.679	11.54687
513.881	9.96675
514.083	12.01409
514.286	10.23869
514.488	10.23693
514.69	9.93068
514.892	9.63288
515.094	11.37453
515.297	10.27384
515.499	10.7871
515.701	9.94623
515.903	12.08511
516.105	12.10532
516.307	11.28316
516.509	9.19387
516.711	9.66346
516.913	10.85623
517.116	10.66059
517.318	10.35026
517.52	11.60049
517.722	11.21831
517.924	9.85646
518.126	11.08177
518.328	10.24246
518.529	11.03352
518.731	12.19269
518.933	10.32287
519.135	10.70624
519.337	11.72864
519.539	11.1871
519.741	9.48722
519.943	10.63061
520.145	10.60889
520.346	11.338
520.548	10.49943
520.75	11.1581
520.952	10.51249
521.153	11.0842
521.355	11.15907
521.557	9.88815
521.759	10.75142
521.96	10.74962
522.162	9.75882
522.364	11.60157
522.565	10.02906
522.767	11.17532
522.969	11.64163
523.17	11.15898
523.372	11.07594
523.573	10.3583
523.775	10.66567
523.977	9.93703
524.178	12.05922
524.38	10.20557
524.581	11.32899
524.783	10.45998
524.984	11.2205
525.186	10.71179
525.387	11.23109
525.589	10.80693
525.79	10.49211
525.991	10.2272
526.193	11.00008
526.394	9.843
526.596	10.97387
526.797	10.93486
526.998	10.4676
527.2	10.68925
527.401	13.19296
527.602	14.31578
527.803	17.02685
528.005	17.65697
528.206	18.81066
528.407	19.6668
528.608	19.21875
528.81	19.43224
529.011	18.58366
529.212	19.18903
529.413	17.52221
529.614	16.08233
529.815	15.03931
530.017	13.68839
530.218	12.06297
530.419	10.85357
530.62	11.14804
530.821	11.22213
531.022	10.21982
531.223	11.47449
531.424	11.43813
531.625	11.24576
531.826	11.16154
532.027	11.07741
532.228	12.18052
532.429	12.26102
532.63	12.63251
532.831	13.47095
533.032	13.50504
533.233	14.0804
533.433	13.65492
533.634	13.83914
533.835	12.77089
534.036	11.93726
534.237	11.29056
534.438	10.84401
534.638	10.42207
534.839	10.66609
535.04	11.43385
535.241	10.77234
535.441	12.338
535.642	11.3706
535.843	10.28776
536.043	10.35069
536.244	10.5483
536.445	10.68822
536.645	11.6418
536.846	11.09346
537.047	11.86847
537.247	10.39037
537.448	10.87028
537.648	11.15056
537.849	10.9492
538.049	11.13036
538.25	11.69975
538.451	11.43287
538.651	10.30677
538.851	11.47074
539.052	12.16075
539.252	11.89061
539.453	11.04725
539.653	11.3762
539.854	11.03268
540.054	11.11801
540.254	11.74565
540.455	12.77255
540.655	12.72324
540.855	14.14868
541.056	15.05304
541.256	14.6768
541.456	15.64047
541.657	14.68642
541.857	15.3887
542.057	13.67252
542.257	13.00122
542.458	13.31835
542.658	12.66435
542.858	10.84049
543.058	12.29808
543.258	11.8134
543.458	10.69204
543.659	10.50057
543.859	12.00248
544.059	11.90637
544.259	11.25683
544.459	12.1747
544.659	10.96139
544.859	11.8457
545.059	10.88169
545.259	11.97784
545.459	11.58446
545.659	12.20922
545.859	11.48297
546.059	11.58709
546.259	10.85161
546.459	10.26964
546.659	10.72213
546.859	12.01988
547.059	11.73507
547.258	11.9273
547.458	11.89573
547.658	10.68736
547.858	10.54276
548.058	11.86304
548.258	11.48762
548.457	10.78479
548.657	14.05504
548.857	11.32094
549.057	12.38515
549.256	12.03767
549.456	11.44281
549.656	9.61386
549.855	13.51641
550.055	11.13145
550.255	13.45677
550.454	11.8748
550.654	12.68739
550.853	13.13858
551.053	12.77463
551.253	12.06237
551.452	12.2518
551.652	10.93211
551.851	10.49362
552.051	11.57759
552.25	11.33097
552.45	11.06575
552.649	11.67384
552.849	11.16924
553.048	11.79116
553.248	12.55042
553.447	10.89935
553.646	12.80114
553.846	13.60905
554.045	12.99314
554.244	10.65333
554.444	13.91081
554.643	10.79011
554.842	13.58558
555.042	14.27785
555.241	11.26659
555.44	11.0167
555.64	12.52178
555.839	14.28406
556.038	12.97476
556.237	11.52854
556.436	12.20233
556.636	12.65099
556.835	11.39148
557.034	14.20451
557.233	12.09748
557.432	10.87945
557.631	13.56564
557.83	12.07973
558.029	11.81183
558.228	11.64765
558.427	11.21044
558.626	12.75369
558.825	11.19356
559.024	12.39391
559.223	14.53418
559.422	12.18953
559.621	12.95336
559.82	9.77774
560.019	12.49143
560.218	12.07668
560.417	9.45794
560.616	11.85084
560.815	16.33556
561.014	10.98881
561.212	14.04112
561.411	12.68396
561.61	10.87986
561.809	12.1492
562.008	14.30139
562.206	12.11327
562.405	13.45305
562.604	12.43434
562.803	13.01415
563.001	12.43056
563.2	11.12008
563.399	13.16635
563.597	11.36023
563.796	12.64891
563.995	11.33675
564.193	13.28067
564.392	12.19767
564.59	15.3971
564.789	10.69033
564.988	12.31986
565.186	13.02305
565.385	12.75071
565.583	12.35355
565.782	12.69347
565.98	12.54387
566.179	12.79069
566.377	11.78648
566.575	12.02838
566.774	14.19894
566.972	13.85919
567.171	15.53415
567.369	14.46781
567.567	13.17777
567.766	13.34012
567.964	10.78527
568.162	13.88967
568.361	14.30332
568.559	13.09148
568.757	13.7
568.956	13.1613
569.154	13.21865
569.352	14.03076
569.55	13.13327
569.748	13.22331
569.947	12.54144
570.145	12.21811
570.343	12.24836
570.541	14.418
570.739	11.86529
570.937	13.53535
571.135	13.56245
571.333	15.3004
571.532	15.24998
571.73	13.50148
571.928	14.55064
572.126	13.7374
572.324	12.95776
572.522	14.93722
572.72	16.52337
572.918	13.31974
573.116	14.02009
573.313	13.36988
573.511	13.51721
573.709	12.93904
573.907	14.64356
574.105	13.1898
574.303	11.74993
574.501	12.05788
574.699	14.12167
574.896	14.07989
575.094	14.25131
575.292	12.21817
575.49	14.82824
575.688	13.50246
575.885	15.40156
576.083	16.14577
576.281	14.44573
576.478	13.08088
576.676	14.5708
576.874	12.3603
577.071	13.63273
577.269	16.9867
577.467	13.71501
577.664	13.83111
577.862	14.94657
578.059	12.74763
578.257	14.97315
578.455	13.58271
578.652	14.16131
578.85	11.43962
579.047	13.96037
579.245	13.892
579.442	13.91817
579.64	14.06183
579.837	11.7117
580.034	17.57952
580.232	13.60099
580.429	12.66968
580.627	14.94019
580.824	15.9722
581.021	14.92491
581.219	13.28055
581.416	12.76054
581.613	16.13311
581.811	16.13443
582.008	12.9683
582.205	15.35201
582.402	14.5634
582.6	16.35885
582.797	14.51884
582.994	15.0344
583.191	15.41747
583.388	14.40018
583.586	15.67734
583.783	15.90873
583.98	13.32629
584.177	14.89991
584.374	10.80448
584.571	14.47823
584.768	14.21723
584.965	14.06683
585.162	15.45926
585.359	17.11127
585.556	14.50804
585.753	15.00308
585.95	12.80133
586.147	13.63401
586.344	15.2799
586.541	14.47509
586.738	12.93556
586.935	14.42203
587.132	13.72033
587.329	16.3176
587.526	14.61794
587.722	21.73252
587.919	13.03707
588.116	15.38306
588.313	16.80375
588.51	18.16641
588.706	14.53317
588.903	15.84792
589.1	16.02739
589.297	18.74327
589.493	14.78791
589.69	15.61254
589.887	13.91961
590.083	13.16999
590.28	13.87961
590.477	16.29792
590.673	16.10915
590.87	16.89287
591.067	14.39208
591.263	15.69566
591.46	15.5275
591.656	14.6741
591.853	16.95594
592.049	13.85261
592.246	14.37246
592.442	17.06399
592.639	17.02189
592.835	13.98942
593.032	15.76565
593.228	13.06472
593.425	12.9645
593.621	12.96571
593.817	15.72372
594.014	14.3236
594.21	15.30131
594.406	16.31271
594.603	16.07987
594.799	14.30373
594.995	11.8538
595.192	16.94324
595.388	15.04576
595.584	14.72562
595.78	13.38793
595.977	18.49853
596.173	17.69285
596.369	14.87459
596.565	13.95335
596.761	13.49476
596.957	17.08468
597.154	14.29492
597.35	14.65163
597.546	14.27256
597.742	16.1411
597.938	15.77118
598.134	14.20098
598.33	15.78944
598.526	17.86995
598.722	16.0665
598.918	18.43793
599.114	16.41424
599.31	14.16283
599.506	15.66319
599.702	14.30187
599.898	15.97197
600.094	17.13806
600.29	16.97746
600.485	17.13225
600.681	14.73053
600.877	18.74269
601.073	15.73621
601.269	18.72511
601.465	17.76854
601.66	14.19967
601.856	13.09414
602.052	18.25236
602.248	14.99003
602.443	12.75472
602.639	13.81861
602.835	14.48854
603.03	14.37113
603.226	17.10744
603.422	14.52253
603.617	15.3552
603.813	15.03297
604.009	14.87661
604.204	17.22258
604.4	13.71319
604.595	16.99032
604.791	14.44541
604.986	16.04765
605.182	14.63935
605.377	15.15375
605.573	14.94844
605.768	15.9786
605.964	16.88592
606.159	16.96089
606.355	17.72622
606.55	15.36061
606.746	17.80595
606.941	15.85931
607.136	19.09617
607.332	20.66987
607.527	13.88856
607.722	16.54143
607.918	15.83319
608.113	15.07838
608.308	17.02001
608.503	16.66538
608.699	16.55227
608.894	16.81362
609.089	14.80961
609.284	16.40013
609.479	15.38758
609.675	16.94549
609.87	15.47415
610.065	17.14384
610.26	17.32297
610.455	17.33867
610.65	15.72028
610.845	16.03292
611.04	17.67406
611.235	16.25816
611.43	15.48521
611.625	14.17343
611.82	18.59675
612.015	15.01897
612.21	19.01453
612.405	13.82077
612.6	19.3762
612.795	18.46891
612.99	17.56813
613.185	14.46255
613.38	14.93442
613.575	16.69999
613.77	21.38097
613.965	13.69154
614.159	15.13329
614.354	18.93349
614.549	18.13305
614.744	17.748
614.938	14.32868
615.133	13.93538
615.328	18.84842
615.523	18.53755
615.717	22.32004
615.912	15.49624
616.107	16.74619
616.301	16.14131
616.496	15.28327
616.691	19.85433
616.885	17.80774
617.08	22.25578
617.274	18.58194
617.469	20.30639
617.664	17.77692
617.858	15.48297
618.053	17.3893
618.247	16.44711
618.442	12.82157
618.636	18.83664
618.831	15.57943
619.025	15.82457
619.219	21.80128
619.414	10.60199
619.608	16.66508
619.803	15.19096
619.997	21.16336
620.191	19.13826
620.386	17.85781
620.58	16.97301
620.774	13.29774
620.969	13.681
621.163	17.10556
621.357	14.93976
621.551	16.32378
621.746	16.92543
621.94	16.40891
622.134	23.92145
622.328	21.24417
622.522	14.09208
622.716	18.99889
622.911	19.41326
623.105	18.78267
623.299	17.88115
623.493	23.3923
623.687	15.46327
623.881	16.12065
624.075	18.13509
624.269	19.6086
624.463	13.51079
624.657	13.58727
624.851	18.30492
625.045	18.99492
625.239	19.11786
625.433	15.96682
625.627	20.05751
625.821	15.84245
626.015	15.44945
626.209	17.19629
626.403	14.62842
626.596	17.95026
626.79	18.41602
626.984	14.70717
627.178	17.9635
627.372	17.833
627.565	18.78255
627.759	14.08278
627.953	14.91525
628.147	17.9554
628.34	18.24791
628.534	21.57734
628.728	16.64528
628.921	19.02538
629.115	18.67139
629.309	19.26161
629.502	19.53145
629.696	17.94227
629.89	17.14045
630.083	17.97887
630.277	18.46885
630.47	21.21193
630.664	16.7733
630.857	14.15769
631.051	19.4629
631.244	19.93423
631.438	19.49771
631.631	15.72416
631.825	20.94741
632.018	18.79968
632.212	22.19792
632.405	20.57377
632.598	15.91568
632.792	17.96427
632.985	12.53712
633.178	16.94221
633.372	17.2404
633.565	17.4067
633.758	20.79637
633.952	15.87038
634.145	15.6382
634.338	17.70371
634.531	16.80597
634.724	16.05275
634.918	18.01051
635.111	17.22065
635.304	16.7565
635.497	23.4669
635.69	18.68506
635.883	21.02267
636.077	15.64129
636.27	19.25098
636.463	18.34995
636.656	18.3799
636.849	16.84792
637.042	19.1085
637.235	21.75816
637.428	19.79095
637.621	19.17842
637.814	21.7989
638.007	21.88155
638.2	22.25295
638.393	23.08135
638.586	15.09266
638.778	17.17556
638.971	18.66496
639.164	22.09438
639.357	19.2946
639.55	22.13228
639.743	20.66433
639.935	20.26444
640.128	24.05762
640.321	20.88928
640.514	19.1467
640.707	24.97644
640.899	20.77307
641.092	14.4047
641.285	39.27207
641.477	13.26065
641.67	25.26465
641.863	22.73441
642.055	19.97277
642.248	19.21433
642.441	17.95402
642.633	19.90093
642.826	22.04059
643.018	22.49184
643.211	24.53807
643.403	23.69634
643.596	25.10414
643.788	25.35771
643.981	18.46335
644.173	21.88408
644.366	18.79905
644.558	14.89071
644.751	22.81987
644.943	15.57864
645.135	24.6708
645.328	24.5782
645.52	21.56846
645.712	22.6276
645.905	29.32239
646.097	16.75689
646.289	20.50142
646.482	25.90106
646.674	17.8836
646.866	22.91886
647.058	21.52377
647.251	16.85811
647.443	18.25829
647.635	19.61506
647.827	16.72844
648.019	17.28314
648.211	19.73291
648.404	19.82824
648.596	24.37205
648.788	20.81517
648.98	20.82161
649.172	20.82322
649.364	20.80052
649.556	14.50459
649.748	28.13083
649.94	16.56471
650.132	21.76501
650.324	17.18448
650.516	18.21888
650.708	23.37874
650.9	15.99968
651.092	18.71586
651.284	15.8895
651.476	17.14098
651.667	21.92579
651.859	24.0645
652.051	20.01838
652.243	20.47395
652.435	19.20499
652.627	21.41942
652.818	21.91458
653.01	15.58053
653.202	17.71574
653.394	19.4474
653.585	22.5949
653.777	34.23506
653.969	24.39506
654.16	23.98451
654.352	17.10543
654.544	19.59413
654.735	23.58833
654.927	20.78316
655.118	25.23953
655.31	23.21502
655.502	23.98474
655.693	19.47679
655.885	22.74935
656.076	24.7441
656.268	21.76871
656.459	24.82031
656.651	25.40079
656.842	19.5834
657.034	18.60861
657.225	23.40991
657.416	25.08934
657.608	24.68287
657.799	20.27237
657.99	23.40811
658.182	18.77539
658.373	18.47483
658.564	22.8323
658.756	20.92177
658.947	20.04323
659.138	17.42735
659.33	18.80337
659.521	18.19724
659.712	20.22222
659.903	19.64756
660.094	18.70462
660.286	15.96558
660.477	26.45616
660.668	22.5926
660.859	20.85288
661.05	16.62208
661.241	23.04801
661.432	22.75479
661.623	20.83679
661.814	19.354
662.006	15.87762
662.197	22.76265
662.388	25.38737
662.579	22.13299
662.77	25.96157
662.96	31.24906
663.151	24.72086
663.342	16.18053
663.533	24.50029
663.724	22.26228
663.915	27.84867
664.106	21.69874
664.297	28.56453
664.488	24.80265
664.678	19.69718
664.869	24.97477
665.06	25.78772
665.251	22.76574
665.442	23.80274
665.632	18.60949
665.823	29.4976
666.014	12.31557
666.204	24.74443
666.395	27.61245
666.586	33.07675
666.776	25.23064
666.967	29.5376
667.158	22.54676
667.348	27.75112
667.539	19.03229
667.729	25.91815
667.92	19.65302
668.111	26.49173
668.301	24.3133
668.492	21.70118
668.682	22.57079
668.873	21.33239
669.063	18.40009
669.253	23.42529
669.444	26.06794
669.634	21.89515
669.825	29.67896
670.015	26.6672
670.206	19.50666
670.396	31.11538
670.586	22.88095
670.777	25.30189
670.967	15.79255
671.157	22.30267
671.347	20.86561
671.538	28.82007
671.728	25.21738
671.918	30.84912
672.108	27.32521
672.299	22.81558
672.489	25.33396
672.679	20.951
672.869	25.04325
673.059	30.98052
673.249	26.00796
673.44	20.64356
673.63	23.55302
673.82	27.98021
674.01	20.71997
674.2	26.12923
674.39	36.14701
674.58	26.77952
674.77	24.6459
674.96	23.79225
675.15	40.97736
675.34	29.24333
675.53	24.20499
675.72	22.80639
675.91	18.86795
676.099	31.57602
676.289	33.0713
676.479	28.71912
676.669	21.9888
676.859	25.74216
677.049	20.65398
677.238	24.19078
677.428	31.36956
677.618	25.91914
677.808	29.93114
677.997	27.00683
678.187	20.0226
678.377	23.8137
678.567	22.5284
678.756	22.13105
678.946	23.30808
679.136	18.26167
679.325	20.78487
679.515	20.09981
679.704	18.99222
679.894	25.49658
680.084	24.29506
680.273	28.27717
680.463	20.50169
680.652	20.41522
680.842	23.35363
681.031	27.65354
681.221	19.81928
681.41	26.61629
681.6	23.70068
681.789	27.16736
681.978	29.52601
682.168	25.33756
682.357	25.98259
682.547	27.80078
682.736	25.21888
682.925	30.56049
683.115	30.60955
683.304	29.0236
683.493	27.19982
683.682	27.93888
683.872	27.83616
684.061	31.33403
684.25	28.99306
684.439	33.90449
684.629	29.2746
684.818	40.62407
685.007	25.26196
685.196	24.74068
685.385	33.44366
685.574	28.75375
685.763	28.81105
685.952	27.15073
686.142	21.61195
686.331	33.21722
686.52	18.3877
686.709	33.46319
686.898	33.38732
687.087	29.46034
687.276	34.56863
687.465	31.03371
687.654	24.83871
687.842	33.90796
688.031	20.78957
688.22	33.06025
688.409	28.0344
688.598	28.01871
688.787	39.0961
688.976	27.73515
689.165	36.40107
689.353	25.74084
689.542	29.07456
689.731	31.39491
689.92	36.61218
690.108	33.06981
690.297	26.23439
690.486	28.74102
690.675	32.66968
690.863	36.6397
691.052	35.96419
691.241	30.4623
691.429	29.82422
691.618	36.1833
691.806	22.71879
691.995	27.94514
692.184	28.97717
692.372	26.72688
692.561	30.59859
692.749	29.2067
692.938	41.79483
693.126	32.06507
693.315	26.7795
693.503	32.41691
693.692	33.42323
693.88	35.69518
694.068	41.66869
694.257	29.38526
694.445	31.55999
694.634	19.66522
694.822	36.16407
695.01	36.66269
695.199	37.17796
695.387	37.59195
695.575	36.76156
695.763	29.79854
695.952	28.08328
696.14	22.99
696.328	27.26154
696.516	30.30758
696.705	30.77309
696.893	29.96571
697.081	20.09695
697.269	32.35134
697.457	23.63258
697.645	22.31637
697.833	31.15457
698.021	23.77479
698.21	24.99966
698.398	26.37561
698.586	22.29943
698.774	21.91082
698.962	25.62184
699.15	22.82797
699.338	20.38315
699.526	29.68192
699.714	24.72517
699.901	25.6885
700.089	33.10165
700.277	24.89005
700.465	27.86072
700.653	33.27213
700.841	31.85441
701.029	25.59896
701.217	37.0376
701.404	31.50905
701.592	38.78226
701.78	41.1999
701.968	28.89156
702.155	30.24738
702.343	23.76833
702.531	37.60983
702.718	33.09694
702.906	29.89591
703.094	27.58613
703.281	38.7392
703.469	31.28461
703.657	37.97863
703.844	50.22307
704.032	42.73818
704.219	28.57489
704.407	34.28576
704.595	40.79719
704.782	33.04081
704.97	29.26677
705.157	30.02826
705.345	42.55429
705.532	48.44845
705.719	34.41052
705.907	41.03308
706.094	34.15031
706.282	44.11036
706.469	32.00868
706.656	34.86946
706.844	30.12447
707.031	39.17988
707.218	34.67311
707.406	42.81793
707.593	37.78786
707.78	38.79646
707.968	33.65547
708.155	28.27697
708.342	37.23633
708.529	36.85432
708.716	34.41892
708.904	45.42073
709.091	38.69823
709.278	27.27316
709.465	47.23676
709.652	45.52081
709.839	43.29324
710.026	35.87059
710.213	24.46832
710.4	36.95109
710.587	39.4463
710.774	41.32105
710.961	42.61472
711.148	34.75071
711.335	42.19715
711.522	33.96454
711.709	36.53885
711.896	49.35563
712.083	41.09944
712.27	30.0774
712.457	36.5411
712.644	26.1589
712.831	48.41625
713.017	36.97788
713.204	40.17517
713.391	31.71917
713.578	43.75009
713.765	45.02665
713.951	39.40797
714.138	58.24832
714.325	40.59688
714.512	37.15321
714.698	31.92084
714.885	46.46533
715.072	38.21229
715.258	37.96414
715.445	32.94616
715.631	45.72216
715.818	20.10513
716.005	32.25189
716.191	40.09704
716.378	35.60797
716.564	42.92088
716.751	31.68506
716.937	34.53251
717.124	46.43574
717.31	32.78352
717.497	48.93139
717.683	32.48646
717.869	56.40688
718.056	35.69311
718.242	42.23107
718.429	38.62513
718.615	31.42286
718.801	40.2494
718.988	46.67731
719.174	43.97257
719.36	38.97737
719.547	50.37172
719.733	41.72055
719.919	41.20085
720.105	45.04512
720.291	38.95252
720.478	41.65104
720.664	38.8819
720.85	37.43446
721.036	63.68373
721.222	51.91279
721.408	41.35482
721.595	57.82537
721.781	55.31016
721.967	49.9656
722.153	55.47646
722.339	48.7606
722.525	45.04617
722.711	33.94706
722.897	32.30806
723.083	38.92678
723.269	50.84189
723.455	62.90205
723.641	66.86333
723.827	43.65153
724.012	47.53636
724.198	40.30678
724.384	53.54933
724.57	45.40275
724.756	30.20992
724.942	27.55041
725.127	50.29773
725.313	54.22452
725.499	53.88587
725.685	58.6409
725.87	46.60872
726.056	36.24302
726.242	55.1823
726.428	30.29752
726.613	50.43947
726.799	39.88171
726.985	34.15188
727.17	30.03971
727.356	57.14712
727.541	34.68093
727.727	41.06941
727.913	48.43834
728.098	37.71817
728.284	50.30196
728.469	32.25899
728.655	36.60672
728.84	49.33116
729.026	49.36138
729.211	49.27502
729.397	44.66418
729.582	50.05303
729.767	42.43525
729.953	45.8659
730.138	52.16155
730.323	25.08901
730.509	33.46991
730.694	55.19083
730.879	47.0268
731.065	44.187
731.25	63.09796
731.435	48.41606
731.621	29.79231
731.806	37.3599
731.991	45.20246
732.176	31.90137
732.361	54.44246
732.547	45.47241
732.732	30.44248
732.917	64.4461
733.102	33.45663
733.287	37.22814
733.472	43.65336
733.657	45.67468
733.842	30.31953
734.027	41.66454
734.212	43.92507
734.397	38.85374
734.582	46.29719
734.767	54.56975
734.952	60.55877
735.137	23.47635
735.322	60.48375
735.507	49.94347
735.692	48.02864
735.877	67.05118
736.062	63.53189
736.247	51.05253
736.431	46.27029
736.616	57.30946
736.801	50.2854
736.986	47.80919
737.171	39.62603
737.355	32.54235
737.54	58.54584
737.725	45.36445
737.909	74.53667
738.094	41.11982
738.279	56.02584
738.463	44.20205
738.648	51.38367
738.833	49.74027
739.017	65.92631
739.202	43.51492
739.386	47.11869
739.571	37.98483
739.756	53.29087
739.94	47.58264
740.125	56.20418
740.309	40.84964
740.494	56.41164
740.678	48.62956
740.863	51.84458
741.047	49.31346
741.231	61.48511
741.416	39.82393
741.6	66.58887
741.785	41.44581
741.969	57.18231
742.153	61.24338
742.338	28.4766
742.522	49.11345
742.706	57.95252
742.89	36.2411
743.075	50.11778
743.259	66.34692
743.443	57.9925
743.627	62.67111
743.812	75.58005
743.996	32.59806
744.18	45.76759
744.364	45.16051
744.548	78.00111
744.732	47.56307
744.916	59.99908
745.1	56.11521
745.285	47.56082
745.469	55.65529
745.653	69.36506
745.837	35.4243
746.021	76.96088
746.205	63.30636
746.389	53.18416
746.573	47.45257
746.757	69.32905
746.94	45.18635
747.124	62.15099
747.308	39.09284
747.492	64.36386
747.676	43.73382
747.86	78.91895
748.044	45.29655
748.227	31.79589
748.411	92.97365
748.595	52.2623
748.779	39.139
748.963	56.47031
749.146	54.10595
749.33	42.33407
749.514	38.97556
749.697	65.08641
749.881	46.39067
750.065	40.81396
750.248	51.96755
750.432	79.92285
750.616	53.17735
750.799	38.02196
750.983	77.34048
751.166	86.00736
751.35	36.04685
751.533	65.44834
751.717	68.20572
751.9	72.04985
752.084	48.39756
752.267	40.1617
752.451	45.77352
752.634	54.2882
752.818	58.47214
753.001	63.5587
753.184	65.32874
753.368	57.28588
753.551	17.87299
753.734	43.84399
753.918	76.54903
754.101	44.80935
754.284	59.5665
754.467	47.55452
754.651	46.20412
754.834	45.03082
755.017	65.75507
755.2	65.92312
755.384	41.2534
755.567	63.21349
755.75	65.62368
755.933	48.65992
756.116	55.79873
756.299	47.22775
756.482	43.05568
756.665	59.68247
756.848	53.54591
757.032	58.20537
757.215	38.2302
757.398	42.59359
757.581	44.03877
757.764	89.34822
757.947	54.02304
758.129	68.89576
758.312	22.4373
758.495	51.66139
758.678	51.32238
758.861	49.43553
759.044	76.67754
759.227	45.06805
759.41	45.81193
759.592	61.88956
759.775	52.22317
759.958	67.81155
760.141	38.61611
760.324	85.58563
760.506	73.82119
760.689	66.94834
760.872	86.31547
761.054	62.28413
761.237	50.80377
761.42	58.97818
761.602	65.80413
761.785	60.2022
761.968	65.18674
762.15	77.88928
762.333	51.08822
762.515	56.26873
762.698	45.24035
762.88	60.36422
763.063	52.54317
763.245	58.37835
763.428	38.17888
763.61	43.53666
763.793	34.46721
763.975	51.63602
764.158	44.1612
764.34	43.42713
764.522	39.4308
764.705	47.71626
764.887	67.55414
765.069	33.52039
765.252	61.24442
765.434	63.33551
765.616	54.70068
765.799	47.59271
765.981	64.71455
766.163	46.17729
766.345	67.714
766.528	48.49663
766.71	25.8973
766.892	55.97253
767.074	70.63355
767.256	51.99842
767.438	80.96823
767.62	62.40324
767.802	87.01153
767.985	66.17417
768.167	85.57654
768.349	46.86176
768.531	65.29106
768.713	61.63666
768.895	70.47488
769.077	64.40448
769.259	98.8113
769.441	131.92362
769.623	71.76158
769.804	83.41229
769.986	81.0811
770.168	97.58626
770.35	114.69803
770.532	86.07317
770.714	93.59185
770.896	98.13772
771.077	42.09093
771.259	97.74635
771.441	83.07872
771.623	107.04935
771.804	124.6024
771.986	45.75079
772.168	65.42105
772.35	104.34515
772.531	131.85682
772.713	79.04813
772.894	106.81634
773.076	78.44539
773.258	68.90561
773.439	107.10725
773.621	118.17191
773.802	61.71916
773.984	69.5319
774.166	85.40629
774.347	113.97226
774.529	105.20113
774.71	40.52708
774.891	73.4751
775.073	72.154
775.254	112.23338
775.436	66.13595
775.617	125.13653
775.799	68.71503
775.98	117.99584
776.161	120.97934
776.343	123.44496
776.524	76.10104
776.705	72.55005
776.886	45.40385
777.068	90.97013
777.249	143.49511
777.43	132.23002
777.611	55.6809
777.793	73.19836
777.974	118.86477
778.155	70.85376
778.336	63.00238
778.517	133.26682
778.698	65.22062
778.879	43.63051
779.061	25.88193
779.242	90.34718
779.423	91.97402
779.604	71.10697
779.785	80.80931
779.966	83.34619
780.147	107.48255
780.328	107.88733
780.509	147.14968
780.69	96.06321
780.871	66.57285
781.051	51.83963
781.232	88.29696
781.413	86.28998
781.594	75.66452
781.775	71.51736
781.956	64.10441
782.137	41.25501
782.317	65.66302
782.498	90.16799
782.679	80.05875
782.86	84.97963
783.04	65.80551
783.221	89.39472
783.402	131.43579
783.583	84.24887
783.763	101.79398
783.944	73.40762
784.124	50.61108
784.305	121.14774
784.486	92.35663
784.666	82.47209
784.847	48.14168
785.027	143.87901
785.208	70.29444
785.388	67.48237
785.569	69.3795
785.749	77.1979
785.93	70.45986
786.11	50.93947
786.291	91.34975
786.471	86.98666
786.652	101.07322
786.832	77.83619
787.012	89.31874
787.193	55.49211
787.373	83.34056
787.553	69.69913
787.734	86.24655
787.914	70.93201
788.094	92.5286
788.275	89.73921
788.455	73.19166
788.635	52.51474
788.815	86.30147
788.995	59.22519
789.176	47.89771
789.356	62.50531
789.536	75.76382
789.716	92.35406
789.896	64.5258
790.076	71.09836
790.256	84.30588
790.436	35.49685
790.616	61.67059
790.796	87.80036
790.976	70.59599
791.156	64.29651
791.336	97.91551
791.516	90.43522
791.696	75.22225
791.876	48.14889
792.056	84.64934
792.236	103.34813
792.416	98.84471
792.596	92.27572
792.776	93.99782
792.956	92.98324
793.135	114.84786
793.315	58.43016
793.495	111.09692
793.675	95.13424
793.854	98.30069
794.034	103.63943
794.214	55.75947
794.394	96.96239
794.573	111.20015
794.753	83.50284
794.933	61.87383
795.112	86.75537
795.292	101.23626
795.472	124.881
795.651	52.23643
795.831	76.13129
796.01	73.60252
796.19	74.22523
796.369	76.80254
796.549	90.78164
796.728	75.26238
796.908	49.4016
797.087	55.75638
797.267	71.60628
797.446	57.14626
797.626	94.40981
797.805	93.24404
797.984	63.89552
798.164	97.60767
798.343	59.00294
798.522	83.8111
798.702	82.37938
798.881	55.18171
799.06	74.22695
799.239	38.3403
799.419	63.75466
799.598	115.68021
799.777	95.65511
799.956	112.22399
800.136	72.0824
800.315	65.65783
800.494	90.73109
800.673	105.76421
800.852	94.35387
801.031	107.13406
801.21	96.77697
801.389	74.80175
801.568	85.98637
801.747	125.9575
801.926	83.39533
802.105	121.28201
802.284	70.04383
802.463	118.93955
802.642	94.47434
802.821	86.4123
803	115.0991
803.179	103.76698
803.358	111.93676
803.537	67.41428
803.716	85.91843
803.895	66.00406
804.073	81.16861
804.252	67.66877
804.431	92.04585
804.61	78.71867
804.789	105.20414
804.967	67.88772
805.146	72.03997
805.325	126.37831
805.503	95.29021
805.682	48.91716
805.861	152.25399
806.039	113.64007
806.218	69.02073
806.397	88.9732
806.575	81.92604
806.754	89.61622
806.932	60.45906
807.111	120.64293
807.289	104.16195
807.468	85.50619
807.646	106.70131
807.825	99.56611
808.003	91.10184
808.182	106.72668
808.36	91.10878
808.539	69.6915
808.717	120.71407
808.895	66.84964
809.074	92.88249
809.252	84.74733
809.43	103.80622
809.609	115.48166
809.787	134.9243
809.965	85.9611
810.144	87.42498
810.322	79.65729
810.5	97.22829
810.678	79.39992
810.856	146.9942
811.035	116.16814
811.213	105.42509
811.391	122.99429
811.569	92.01439
811.747	160.0782
811.925	119.44738
812.103	67.68156
812.281	84.93769
812.459	139.23427
812.637	134.96431
812.816	111.0644
812.994	141.03216
813.171	121.49398
813.349	103.89427
813.527	120.86446
813.705	129.65047
813.883	159.68515
814.061	118.56528
814.239	140.90464
814.417	148.95094
814.595	101.71343
814.773	101.36247
814.95	97.89595
815.128	104.94971
815.306	94.96175
815.484	82.17674
815.662	72.48344
815.839	62.10692
816.017	73.29944
816.195	116.37362
816.372	81.96142
816.55	110.68169
816.728	132.82293
816.905	87.68354
817.083	142.26462
817.261	93.67173
817.438	152.67153
817.616	142.44688
817.793	77.33272
817.971	113.8192
818.148	108.093
818.326	131.7903
818.503	100.60814
818.681	128.47082
818.858	75.4038
819.036	88.91809
819.213	97.27464
819.391	72.10895
819.568	66.97603
819.745	63.73856
819.923	108.61718
820.1	73.50296
820.277	65.21895
820.455	75.1029
820.632	78.07153
820.809	77.98762
820.986	52.904
821.164	44.48795
821.341	39.41716
821.518	49.91381
821.695	37.49638
821.872	35.93444
822.05	31.2673
822.227	26.38512
822.404	27.72151
822.581	32.84671
822.758	27.60442
822.935	28.4039
823.112	32.29169
823.289	27.71913
823.466	33.47972
823.643	31.79206
823.82	38.46334
823.997	36.69241
824.174	43.52878
824.351	56.19137
824.528	54.08741
824.705	48.98801
824.882	54.96137
825.059	68.10605
825.236	48.88136
825.412	50.76041
825.589	59.58445
825.766	79.55485
825.943	53.66197
826.12	60.11375
826.296	43.20464
826.473	50.61043
826.65	50.1271
826.827	59.63934
827.003	40.84723
827.18	45.33814
827.357	51.1855
827.533	46.18443
827.71	28.80059
827.887	42.32527
828.063	49.48865
828.24	42.62919
828.416	58.69738
828.593	50.4767
828.769	71.41473
828.946	79.38493
829.122	82.35273
829.299	77.99897
829.475	48.05773
829.652	76.58918
829.828	124.23724
830.005	77.49382
830.181	105.83314
830.357	76.27104
830.534	110.21586
830.71	82.15138
830.886	102.46366
831.063	101.68178
831.239	121.44096
831.415	64.85127
831.592	125.0208
831.768	84.35479
831.944	71.14942
832.12	119.56365
832.296	114.5754
832.473	99.43457
832.649	71.44378
832.825	92.85798
833.001	56.52321
833.177	81.92505
833.353	71.33604
833.529	45.0778
833.705	61.32521
833.881	47.17386
834.058	46.79699
834.234	51.66462
834.41	51.32235
834.586	42.0747
834.761	52.06276
834.937	57.31579
835.113	59.67358
835.289	55.95621
835.465	68.31822
835.641	61.40716
835.817	69.80879
835.993	115.52961
836.169	63.09937
836.344	87.61926
836.52	100.0654
836.696	97.85815
836.872	74.40186
837.048	185.18992
837.223	83.79526
837.399	152.10882
837.575	122.20348
837.75	114.62878
837.926	147.00367
838.102	223.592
838.277	176.34504
838.453	215.34846
838.628	209.40924
838.804	101.38124
838.98	210.87092
839.155	106.50105
839.331	138.08491
839.506	99.85036
839.682	105.09256
839.857	123.8241
840.033	145.47593
840.208	82.71599
840.384	45.11038
840.559	84.4607
840.734	122.81193
840.91	162.53203
841.085	105.39637
841.26	107.44318
841.436	100.41583
841.611	92.96291
841.786	159.23657
841.962	187.32728
842.137	122.48555
842.312	85.14935
842.487	103.68166
842.663	89.46208
842.838	109.7285
843.013	299.7542
843.188	157.68784
843.363	139.9258
843.538	281.21136
843.714	267.17493
843.889	269.6953
844.064	278.23128
844.239	239.03513
844.414	281.31399
844.589	197.22695
844.764	321.44351
844.939	303.18962
845.114	402.84164
845.289	327.70899
845.464	375.01023
845.639	295.65752
845.814	163.8181
845.989	194.77442
846.163	195.70675
846.338	245.6733
846.513	346.78025
846.688	232.11185
846.863	230.45842
847.038	198.19007
847.212	233.08315
847.387	238.6312
847.562	248.9691
847.737	262.27248
847.911	120.65349
848.086	158.5697
848.261	437.07001
848.435	208.75216
848.61	322.21086
848.785	161.91398
848.959	288.93599
849.134	391.9303
849.308	502.11098
849.483	236.84678
849.658	353.39784
849.832	223.26587
850.007	187.58628
850.181	418.8567
850.356	195.48279
850.53	392.08686
850.705	159.08945
850.879	106.59014
851.053	242.79776
851.228	199.51462
851.402	295.63735
851.577	348.51271
851.751	335.36239
851.925	254.74373
852.099	115.6505
852.274	187.68169
852.448	231.43763
852.622	256.00357
852.797	245.97732
852.971	227.23612
853.145	263.80183
853.319	468.63655
853.493	350.18305
853.668	203.54261
853.842	389.39914
854.016	321.69413
854.19	430.39722
854.364	269.93835
854.538	287.35309
854.712	358.53377
854.886	268.27211
855.06	223.7956
855.234	91.81168
855.408	394.60019
855.582	340.70402
855.756	332.82544
855.93	407.15706
856.104	287.10635
856.278	334.81822
856.452	257.00139
856.626	295.2148
856.8	461.07695
856.973	305.34731
857.147	272.93549
857.321	280.03422
857.495	346.87163
857.669	244.89785
857.842	220.20447
858.016	384.29475
858.19	173.23173
858.364	588.96767
858.537	237.31841
858.711	252.59544
858.885	217.31854
859.058	194.58431
859.232	120.45533
859.405	142.89404
859.579	344.94915
859.753	270.24635
859.926	190.03757
860.1	135.76756
860.273	227.44881
860.447	440.39256
860.62	222.44573
860.794	443.84221
860.967	267.50993
861.141	358.49406
861.314	489.26586
861.487	303.33037
861.661	379.9916
861.834	417.36695
862.008	339.12373
862.181	268.27639
862.354	272.19985
862.528	299.62632
862.701	185.56244
862.874	144.69484
863.047	215.68576
863.221	231.0856
863.394	111.01976
863.567	352.11902
863.74	99.23827
863.913	354.3717
864.087	288.21613
864.26	319.14006
864.433	231.95779
864.606	484.29614
864.779	255.24097
864.952	133.23056
865.125	197.91475
865.298	243.34513
865.471	263.81608
865.644	416.00509
865.817	366.82729
865.99	318.59488
866.163	400.46646
866.336	211.71094
866.509	237.06765
866.682	205.33439
866.855	343.94852
867.028	158.64707
867.2	311.41441
867.373	106.34822
867.546	268.83943
867.719	430.02317
867.892	264.62646
868.064	180.41402
868.237	277.06647
868.41	287.02499
868.583	155.43883
868.755	144.32825
868.928	224.83708
869.101	459.3401
869.273	324.52466
869.446	284.09493
869.619	370.32365
869.791	232.26106
869.964	352.10162
870.136	317.49946
870.309	269.48128
870.481	272.23118
870.654	135.95834
870.826	256.29031
870.999	217.44313
871.171	301.78689
871.344	200.77064
871.516	246.48822
871.689	173.56591
871.861	268.47403
872.033	191.13024
872.206	230.11546
872.378	330.05884
872.55	220.0985
872.723	146.2829
872.895	205.33019
873.067	352.76403
873.24	325.69544
873.412	194.94243
873.584	227.09306
873.756	209.50972
873.928	266.81513
874.101	266.71854
874.273	263.476
874.445	109.26078
874.617	145.71832
874.789	245.8782
874.961	218.01884
875.133	283.41648
875.305	247.17468
875.477	161.67913
875.649	132.63926
875.821	164.76657
875.993	365.054
876.165	155.17718
876.337	257.68148
876.509	225.30308
876.681	258.57835
876.853	273.97267
877.025	258.48578
877.197	181.13209
877.369	161.35305
877.541	288.61189
877.712	95.20918
877.884	151.61535
878.056	259.67889
878.228	147.40709
878.4	271.35737
878.571	150.71348
878.743	112.12557
878.915	217.91074
879.086	140.89272
879.258	175.32785
879.43	146.98758
879.601	127.14217
879.773	136.2221
879.945	40.87911
880.116	59.71359
880.288	41.52468
880.459	44.62495
880.631	34.90201
880.802	40.97395
880.974	38.51212
881.145	28.66982
881.317	36.49849
881.488	29.32331
881.66	32.29845
881.831	29.40701
882.002	39.83954
882.174	30.96506
882.345	39.80454
882.517	25.23033
882.688	49.28304
882.859	42.55584
883.03	66.958
883.202	64.4746
883.373	59.07381
883.544	59.32174
883.715	93.45154
883.887	82.67009
884.058	70.4782
884.229	97.11165
884.4	97.68895
884.571	112.5611
884.742	91.32812
884.914	99.07288
885.085	133.26846
885.256	176.16564
885.427	146.73793
885.598	161.06161
885.769	169.19719
885.94	173.89216
886.111	119.79478
886.282	198.10761
886.453	153.86983
886.624	122.05084
886.795	202.72674
886.966	162.04866
887.136	214.90477
887.307	139.98617
887.478	268.52374
887.649	245.84183
887.82	231.09451
887.991	201.20966
888.161	273.44806
888.332	233.82143
888.503	143.39042
888.674	320.38772
888.844	355.6521
889.015	277.71213
889.186	146.54006
889.356	341.77258
889.527	131.0164
889.698	497.6632
889.868	175.77182
890.039	254.40705
890.209	202.64277
890.38	271.13797
890.551	233.66241
890.721	326.2622
890.892	281.93355
891.062	214.93006
891.233	261.20623
891.403	192.81539
891.574	156.93826
891.744	219.69201
891.914	228.94245
892.085	206.86826
892.255	82.87966
892.425	316.68586
892.596	236.24117
892.766	250.92738
892.936	294.97028
893.107	263.18278
893.277	156.55784
893.447	124.48277
893.618	93.6095
893.788	166.69587
893.958	100.11129
894.128	94.68695
894.298	104.81456
894.468	133.88612
894.639	71.6827
894.809	52.05856
894.979	78.77262
895.149	93.07997
895.319	76.91537
895.489	107.52665
895.659	135.70426
895.829	96.18618
895.999	103.93156
896.169	86.79819
896.339	106.99498
896.509	208.17253
896.679	222.54368
896.849	232.38733
897.019	294.40805
897.189	212.5461
897.358	193.48225
897.528	294.85531
897.698	112.31264
897.868	255.44427
898.038	415.83934
898.208	393.20029
898.377	129.79829
898.547	362.25191
898.717	493.99454
898.886	252.25077
899.056	423.69958
899.226	494.66016
899.395	326.64863
899.565	467.22537
899.735	325.26095
899.904	492.5001
900.074	405.12765
900.244	197.45297
900.413	615.31622
900.583	161.45967
900.752	285.16796
900.922	425.74433
901.091	55.47564
901.261	352.58802
901.43	366.70618
901.599	339.43377
901.769	705.32965
901.938	493.10481
902.108	376.53558
902.277	478.04678
902.446	140.84003
902.616	173.11431
902.785	222.88801
902.954	386.77237
903.124	226.28616
903.293	182.16016
903.462	109.91643
903.631	155.16749
903.801	113.13598
903.97	62.2741
904.139	105.81688
904.308	82.52453
904.477	71.69257
904.646	52.2964
904.816	71.89855
904.985	104.16954
905.154	159.87339
