Data from WindowProjectSample_Transmission__53__00053__08961108804225212.txt Node

Date: Mon May 05 18:14:04 EDT 2025
User: jessi
Spectrometer: SR400872
Trigger mode: 0
Integration Time (sec): 5.000010E-1
Scans to average: 20
Electric dark correction enabled: true
Nonlinearity correction enabled: true
Boxcar width: 0
XAxis mode: Wavelengths
Number of Pixels in Spectrum: 3648
>>>>>Begin Spectral Data<<<<<
184.909	20594.06199
185.132	-5000.70871
185.355	-3084.11151
185.578	-17754.76173
185.801	1373.87607
186.024	9666.32572
186.247	-1809.43681
186.47	1071.45833
186.693	483.04893
186.916	315.34374
187.139	-3684.67854
187.362	3492.96384
187.585	4746.53771
187.808	3261.76737
188.031	14.82662
188.254	-52006.53902
188.476	-584.92272
188.699	5973.97243
188.922	601.48574
189.145	-15385.7474
189.368	-568.76074
189.591	-1328.27724
189.813	3027.7992
190.036	-50283.88073
190.259	-821.45826
190.482	-4298.29471
190.705	6740.3958
190.927	-2414.49661
191.15	12817.25674
191.373	3187.11247
191.595	-8355.01162
191.818	-4010.93021
192.041	-6360.59529
192.263	-3372.1521
192.486	-782.01902
192.709	-3870.51865
192.931	7471.63616
193.154	-28640.27712
193.377	-2744.40662
193.599	-2465.28887
193.822	-9242.58814
194.044	-1944.9127
194.267	1067.23996
194.489	263.84986
194.712	-40839.00488
194.934	-31538.251
195.157	1214.50613
195.379	1257.62782
195.602	-6449.16107
195.824	-1276.36692
196.047	-7347.83123
196.269	2671.76396
196.492	-6233.30928
196.714	27009.98935
196.936	-8003.52956
197.159	-1108.77236
197.381	881.07481
197.604	339.90188
197.826	11259.77645
198.048	-10095.89679
198.271	-2697.18072
198.493	7509.58925
198.715	2257.34807
198.938	-412.64417
199.16	6555.47584
199.382	-100114.49121
199.604	2382.23021
199.827	-1060.27957
200.049	-2828.65698
200.271	13938.61813
200.493	1174.91918
200.715	-37554.19228
200.938	-5817.23496
201.16	-4139.2483
201.382	18674.68953
201.604	2154.58809
201.826	2326.27834
202.048	-1885.39445
202.27	-1901.61823
202.492	-36693.61377
202.715	2711.52093
202.937	-4204.8761
203.159	-6094.32986
203.381	1397.31426
203.603	6148.66844
203.825	5980.51408
204.047	2170.81842
204.269	-2674.95851
204.491	2111.73834
204.713	5744.88531
204.935	-474320.26237
205.156	1097.87898
205.378	-2722.30099
205.6	1593.71126
205.822	145694.79711
206.044	-980.32341
206.266	1567.65476
206.488	3927.40824
206.71	-4850.18594
206.932	1098.01084
207.153	11714.56007
207.375	-6718.15067
207.597	-37256.31888
207.819	-2662.39457
208.041	2378.75713
208.262	432.37907
208.484	702.266
208.706	-747.96681
208.927	-830.09658
209.149	532.14912
209.371	-2744.86888
209.593	-209.60077
209.814	-709.85068
210.036	483.74328
210.258	-633.94831
210.479	1595.73807
210.701	1533.03072
210.922	3135.75891
211.144	-3614.3874
211.366	1975.50224
211.587	5535.96635
211.809	-8080.97232
212.03	2289.95119
212.252	387.78261
212.473	1883.40277
212.695	-5439.1923
212.916	2607.00282
213.138	-711.95809
213.359	3489.68958
213.581	4660.9039
213.802	-621.46175
214.024	1037.253
214.245	2207.21845
214.466	3417.35099
214.688	-3125.65973
214.909	-1014.0745
215.131	-1676.91113
215.352	-3284.6799
215.573	14391.03523
215.795	4895.53629
216.016	5166.54734
216.237	832.23573
216.459	3256.51125
216.68	1810.95819
216.901	4713.01355
217.122	-3212.37575
217.344	-10695.77088
217.565	3385.5527
217.786	8964.1223
218.007	15090.51426
218.228	-681.03679
218.45	5366.31149
218.671	708.97803
218.892	35639.54968
219.113	1469.2777
219.334	-481.95141
219.555	9463.51901
219.776	2951.54635
219.997	21272.60865
220.219	2797.27196
220.44	-10296.66909
220.661	450.74998
220.882	1424.51877
221.103	-1038.14133
221.324	2060.60047
221.545	2230.47068
221.766	-8434.80856
221.987	840.72266
222.208	1507.65574
222.429	4115.81146
222.65	116.25418
222.87	16190.10488
223.091	694.31996
223.312	560.04335
223.533	1218.65747
223.754	1486.74825
223.975	1244.86704
224.196	1956.27129
224.417	1298.58323
224.637	590.5537
224.858	123.339
225.079	990.0894
225.3	609.06343
225.521	3707.29621
225.741	419.43059
225.962	480.39849
226.183	133.88893
226.404	646.8736
226.624	416.42188
226.845	571.20461
227.066	392.5742
227.286	227.7925
227.507	126.55096
227.728	111.25548
227.948	224.92156
228.169	70.90045
228.389	82.84127
228.61	43.90984
228.831	61.78327
229.051	1.06333
229.272	35.98855
229.492	54.64767
229.713	12.59249
229.933	34.08991
230.154	33.76933
230.374	52.60373
230.595	36.23504
230.815	23.67664
231.036	35.89775
231.256	-10.27914
231.477	66.72899
231.697	36.78883
231.917	37.45194
232.138	53.30588
232.358	100.94805
232.579	100.2844
232.799	18.35238
233.019	97.19281
233.24	107.88557
233.46	36.07577
233.68	58.40343
233.901	40.2447
234.121	24.21026
234.341	11.28263
234.561	-5.04398
234.782	17.66169
235.002	64.64576
235.222	-4.79534
235.442	60.03272
235.662	29.75594
235.883	59.19273
236.103	47.21875
236.323	35.17303
236.543	28.1349
236.763	40.54793
236.983	39.80082
237.203	39.7927
237.423	57.82457
237.643	82.28929
237.864	69.16244
238.084	17.99191
238.304	25.02181
238.524	42.65709
238.744	37.03866
238.964	72.03223
239.184	58.00431
239.404	63.76209
239.624	29.92488
239.843	58.78342
240.063	33.97831
240.283	19.80872
240.503	24.13789
240.723	24.94744
240.943	11.93996
241.163	18.79549
241.383	14.24689
241.603	6.71397
241.822	9.32498
242.042	5.97503
242.262	7.85904
242.482	9.35821
242.702	10.39981
242.921	2.12763
243.141	6.28046
243.361	5.51139
243.581	8.93986
243.8	7.01762
244.02	5.39064
244.24	9.10917
244.459	8.8705
244.679	16.43849
244.899	10.79672
245.118	12.09046
245.338	11.03711
245.558	13.62527
245.777	8.25783
245.997	9.73038
246.216	10.03056
246.436	6.37137
246.655	4.53915
246.875	2.98303
247.094	6.14625
247.314	2.03087
247.533	3.43559
247.753	4.15217
247.972	3.18028
248.192	1.09151
248.411	1.75912
248.631	3.25273
248.85	4.51667
249.07	3.74853
249.289	5.77062
249.508	4.96071
249.728	7.43802
249.947	6.6251
250.166	8.73973
250.386	4.12831
250.605	6.16214
250.824	10.42118
251.044	7.38062
251.263	27.94253
251.482	14.6602
251.701	10.98948
251.921	-0.45057
252.14	2.91202
252.359	3.66601
252.578	9.72104
252.798	2.988
253.017	8.98439
253.236	4.06313
253.455	5.31963
253.674	9.62174
253.893	4.62671
254.112	7.30682
254.331	11.28256
254.551	7.67315
254.77	2.91088
254.989	12.91653
255.208	9.33104
255.427	14.81645
255.646	11.00983
255.865	21.65701
256.084	8.3214
256.303	10.21097
256.522	13.38655
256.741	2.58519
256.96	2.42492
257.179	8.71735
257.397	11.04752
257.616	6.01994
257.835	6.03139
258.054	14.42094
258.273	10.25216
258.492	10.61839
258.711	5.91797
258.93	3.01918
259.148	4.45438
259.367	4.37191
259.586	5.43809
259.805	2.25415
260.023	5.08194
260.242	3.72449
260.461	2.63713
260.68	1.29327
260.898	4.32462
261.117	1.28964
261.336	0.91405
261.554	3.32865
261.773	3.19826
261.992	0.60979
262.21	3.14471
262.429	3.4564
262.648	7.22849
262.866	7.76652
263.085	5.47633
263.303	4.8519
263.522	8.36744
263.74	8.81032
263.959	14.79533
264.178	6.71562
264.396	6.41786
264.615	4.34958
264.833	10.28392
265.051	8.64699
265.27	10.45889
265.488	10.78438
265.707	5.7798
265.925	10.49728
266.144	4.70425
266.362	5.23748
266.58	5.20917
266.799	4.75074
267.017	6.11186
267.235	5.07299
267.454	3.01544
267.672	1.62053
267.89	3.76367
268.109	4.11351
268.327	4.03136
268.545	0.91404
268.763	3.69397
268.982	1.19615
269.2	3.94256
269.418	2.76988
269.636	1.63984
269.854	4.67898
270.073	2.92247
270.291	1.63002
270.509	1.71642
270.727	4.27178
270.945	6.99068
271.163	6.76423
271.381	1.14503
271.599	3.02223
271.817	5.15764
272.036	1.77423
272.254	2.88564
272.472	2.2514
272.69	2.51007
272.908	2.38659
273.126	4.30029
273.344	5.09291
273.562	1.56329
273.779	2.43769
273.997	3.60601
274.215	3.94869
274.433	2.8205
274.651	4.29352
274.869	4.55336
275.087	2.77356
275.305	3.8371
275.523	2.14258
275.74	2.76188
275.958	5.18127
276.176	7.84132
276.394	2.29649
276.612	3.09386
276.829	2.96501
277.047	2.41854
277.265	2.78817
277.483	3.58677
277.7	4.17396
277.918	3.30506
278.136	6.25307
278.353	2.92526
278.571	1.64613
278.789	4.08717
279.006	0.82462
279.224	2.67944
279.442	5.12006
279.659	3.47983
279.877	2.21359
280.094	5.83202
280.312	0.86419
280.529	3.26401
280.747	0.95195
280.964	2.58623
281.182	5.81552
281.399	2.67758
281.617	3.70677
281.834	2.47874
282.052	1.92989
282.269	3.06603
282.487	2.36581
282.704	1.91939
282.921	1.96351
283.139	3.17857
283.356	4.01814
283.574	3.71042
283.791	1.81399
284.008	5.4091
284.226	2.74369
284.443	3.18702
284.66	4.24266
284.877	3.25484
285.095	1.97106
285.312	1.6936
285.529	0.96718
285.746	0.73097
285.964	1.93332
286.181	1.31829
286.398	1.87228
286.615	2.66633
286.832	2.43638
287.05	0.45503
287.267	1.73
287.484	1.82199
287.701	2.48087
287.918	2.59938
288.135	2.48412
288.352	1.16798
288.569	1.25543
288.786	2.40662
289.003	1.85054
289.22	3.07065
289.437	1.42825
289.654	2.78959
289.871	2.98384
290.088	2.81645
290.305	2.21046
290.522	1.70168
290.739	1.94221
290.956	3.00765
291.173	3.47204
291.39	3.33985
291.607	2.35662
291.824	1.52412
292.04	1.29009
292.257	2.64205
292.474	3.1759
292.691	1.841
292.908	0.87387
293.125	1.64046
293.341	1.01137
293.558	4.85563
293.775	1.81263
293.992	1.78851
294.208	0.8442
294.425	1.13609
294.642	1.89144
294.858	2.58326
295.075	0.59884
295.292	1.71873
295.508	2.21291
295.725	4.01983
295.942	1.63811
296.158	1.25995
296.375	2.02715
296.591	1.50637
296.808	1.63108
297.024	1.93882
297.241	2.2803
297.458	2.50198
297.674	0.27873
297.891	1.96055
298.107	1.63263
298.323	1.18359
298.54	3.30342
298.756	1.50317
298.973	0.87563
299.189	3.32736
299.406	1.44545
299.622	3.01338
299.838	2.98584
300.055	2.86202
300.271	1.01406
300.487	1.38472
300.704	1.67141
300.92	1.01004
301.136	4.61066
301.353	2.96106
301.569	2.27129
301.785	2.52382
302.001	3.09295
302.218	2.65421
302.434	2.78534
302.65	1.30501
302.866	2.03542
303.083	4.47609
303.299	4.31125
303.515	2.59361
303.731	2.82326
303.947	1.31787
304.163	1.85774
304.379	2.71092
304.595	3.06853
304.812	1.9063
305.028	2.03204
305.244	2.46651
305.46	3.26602
305.676	3.43256
305.892	3.85111
306.108	3.11972
306.324	2.08055
306.54	4.34129
306.756	3.08725
306.972	3.0158
307.187	2.61226
307.403	4.00435
307.619	2.24931
307.835	3.80518
308.051	4.10588
308.267	1.84499
308.483	3.83582
308.699	3.22007
308.914	2.70704
309.13	2.68226
309.346	1.6036
309.562	1.85725
309.778	1.57659
309.993	3.38755
310.209	2.83834
310.425	1.79287
310.641	2.76449
310.856	2.02694
311.072	1.97943
311.288	2.71415
311.503	2.99094
311.719	1.40362
311.935	1.36813
312.15	3.38443
312.366	2.91302
312.581	3.30433
312.797	2.81467
313.013	3.65505
313.228	2.357
313.444	2.69748
313.659	2.27752
313.875	3.3269
314.09	2.8203
314.306	4.36846
314.521	3.64164
314.737	3.60177
314.952	3.03723
315.168	2.89218
315.383	3.30141
315.599	2.72585
315.814	2.7769
316.029	3.51111
316.245	1.92629
316.46	1.4971
316.675	4.07433
316.891	4.55561
317.106	5.57845
317.321	3.30693
317.537	3.65704
317.752	3.75351
317.967	3.95108
318.183	2.14722
318.398	2.69349
318.613	3.90577
318.828	4.50622
319.043	3.84102
319.259	2.90728
319.474	3.39305
319.689	4.15369
319.904	1.67495
320.119	3.86705
320.334	3.33972
320.549	2.97751
320.765	4.21886
320.98	3.55419
321.195	3.63868
321.41	3.13561
321.625	3.91814
321.84	4.85224
322.055	4.7402
322.27	2.75615
322.485	2.32924
322.7	3.56725
322.915	4.15062
323.13	2.5573
323.345	4.8244
323.56	4.28325
323.775	4.05072
323.989	3.66638
324.204	3.6327
324.419	4.37457
324.634	2.42164
324.849	3.21302
325.064	6.47873
325.279	4.31137
325.493	3.83643
325.708	4.20144
325.923	2.69721
326.138	3.15191
326.352	4.77989
326.567	4.28022
326.782	3.1706
326.997	2.97355
327.211	4.0797
327.426	3.83173
327.641	3.24079
327.855	2.14347
328.07	4.05281
328.285	5.04545
328.499	3.05231
328.714	3.80348
328.928	4.14746
329.143	3.39966
329.358	4.47754
329.572	4.47782
329.787	4.76566
330.001	5.84883
330.216	2.51284
330.43	5.4707
330.645	5.07035
330.859	4.44799
331.074	2.95212
331.288	3.68951
331.503	4.99175
331.717	2.83503
331.931	3.83303
332.146	3.99134
332.36	5.44773
332.575	4.0831
332.789	4.02162
333.003	4.04531
333.218	4.31955
333.432	3.16629
333.646	4.64925
333.86	5.24041
334.075	5.29656
334.289	3.32402
334.503	2.81402
334.717	4.38614
334.932	4.03378
335.146	4.71674
335.36	3.45823
335.574	4.42358
335.788	4.13621
336.003	4.72963
336.217	4.55146
336.431	4.51772
336.645	3.45506
336.859	3.02914
337.073	3.94328
337.287	4.33624
337.501	2.95105
337.715	4.49232
337.929	4.7679
338.143	3.16361
338.357	3.87691
338.571	3.50185
338.785	4.64211
338.999	3.71626
339.213	3.60571
339.427	2.99132
339.641	5.40725
339.855	3.84483
340.069	3.53483
340.283	4.92701
340.497	5.78526
340.711	4.65296
340.924	4.07564
341.138	3.40494
341.352	3.13787
341.566	4.40034
341.78	2.99906
341.993	3.89203
342.207	3.54184
342.421	4.49476
342.635	4.0898
342.848	4.01379
343.062	2.43997
343.276	3.72838
343.49	5.98061
343.703	3.73287
343.917	5.199
344.131	5.26644
344.344	3.74325
344.558	4.12743
344.771	3.32782
344.985	5.72609
345.199	5.80806
345.412	4.68804
345.626	4.83146
345.839	3.14051
346.053	3.56641
346.266	3.68884
346.48	4.94307
346.693	4.85631
346.907	4.54688
347.12	3.82371
347.334	4.7558
347.547	4.71192
347.76	4.13876
347.974	5.36434
348.187	4.65112
348.401	4.23135
348.614	3.8281
348.827	4.26576
349.041	4.79783
349.254	3.11673
349.467	4.20721
349.681	3.66523
349.894	3.93827
350.107	5.52657
350.32	6.14102
350.534	3.38784
350.747	4.32759
350.96	3.90715
351.173	4.13831
351.386	4.27363
351.6	3.97929
351.813	4.25195
352.026	4.41458
352.239	3.78199
352.452	4.33277
352.665	5.50151
352.878	4.65421
353.092	6.26839
353.305	5.28581
353.518	4.85154
353.731	3.90886
353.944	5.55091
354.157	4.34624
354.37	4.28089
354.583	3.97045
354.796	3.64707
355.009	5.51706
355.222	5.03058
355.435	4.88766
355.647	5.587
355.86	4.2322
356.073	4.94063
356.286	4.43763
356.499	5.55945
356.712	5.27832
356.925	5.4487
357.138	5.56205
357.35	4.46481
357.563	4.80467
357.776	5.15171
357.989	4.97804
358.201	5.45398
358.414	5.26082
358.627	6.01183
358.84	4.85094
359.052	4.13073
359.265	4.58926
359.478	5.90863
359.69	3.30118
359.903	5.69012
360.116	5.91709
360.328	4.12326
360.541	5.79494
360.753	4.6878
360.966	5.0034
361.179	5.22044
361.391	4.9984
361.604	5.00966
361.816	5.13461
362.029	5.11901
362.241	4.81318
362.454	5.19703
362.666	4.7386
362.879	5.69457
363.091	5.06854
363.304	4.97975
363.516	5.16351
363.728	4.58373
363.941	5.5906
364.153	5.28577
364.366	3.86338
364.578	4.518
364.79	5.40432
365.003	5.35263
365.215	4.87708
365.427	5.78132
365.639	5.93253
365.852	5.29268
366.064	6.7917
366.276	5.14151
366.488	5.54104
366.701	5.1618
366.913	5.20087
367.125	5.15647
367.337	4.76504
367.549	4.9819
367.762	5.24198
367.974	5.39683
368.186	5.04627
368.398	5.95234
368.61	5.69396
368.822	5.79258
369.034	5.20416
369.246	5.95971
369.458	7.54904
369.67	4.71213
369.882	6.66964
370.094	4.14717
370.306	6.59819
370.518	5.23321
370.73	5.15943
370.942	5.10264
371.154	5.4729
371.366	5.28843
371.578	5.90691
371.79	5.25537
372.002	6.30579
372.214	7.14802
372.425	5.45271
372.637	6.61396
372.849	5.97888
373.061	4.22966
373.273	5.78435
373.484	5.78948
373.696	6.13421
373.908	4.20348
374.12	6.33796
374.331	5.93988
374.543	5.02641
374.755	5.01768
374.967	5.62505
375.178	6.39046
375.39	5.34294
375.602	5.85374
375.813	4.64434
376.025	5.10362
376.236	5.85467
376.448	6.11875
376.66	5.66178
376.871	5.70174
377.083	6.67301
377.294	7.14484
377.506	5.5748
377.717	6.95355
377.929	6.12919
378.14	5.67176
378.352	6.18527
378.563	6.23563
378.775	6.83423
378.986	5.34974
379.197	5.94037
379.409	5.41291
379.62	6.40706
379.832	6.27398
380.043	5.69096
380.254	6.28261
380.466	5.18093
380.677	7.96473
380.888	7.24294
381.1	7.77787
381.311	7.8292
381.522	6.27322
381.733	7.92477
381.945	6.09181
382.156	6.00886
382.367	5.78795
382.578	8.02832
382.789	8.12059
383.001	5.73585
383.212	7.32309
383.423	7.3251
383.634	6.97736
383.845	6.87668
384.056	6.03231
384.267	6.36975
384.478	6.36091
384.69	5.70489
384.901	6.57332
385.112	6.56554
385.323	7.57361
385.534	6.68927
385.745	6.5859
385.956	6.5799
386.167	5.86073
386.378	6.73282
386.588	5.99977
386.799	5.87898
387.01	5.44964
387.221	7.05848
387.432	6.45563
387.643	7.57593
387.854	6.37326
388.065	6.22139
388.275	6.41126
388.486	6.09314
388.697	6.44944
388.908	6.16844
389.119	7.3223
389.329	7.27197
389.54	6.68622
389.751	6.82546
389.962	7.43358
390.172	6.65928
390.383	6.58836
390.594	6.27382
390.804	6.29823
391.015	6.32256
391.226	6.87088
391.436	7.15333
391.647	6.95639
391.858	7.18918
392.068	5.83644
392.279	6.24312
392.489	6.95775
392.7	7.4454
392.91	6.46025
393.121	6.29453
393.331	7.20875
393.542	7.5842
393.752	7.40249
393.963	7.23687
394.173	7.08478
394.384	7.27659
394.594	7.03714
394.804	6.24733
395.015	7.10624
395.225	7.24542
395.436	6.34484
395.646	7.13439
395.856	6.64795
396.067	6.05258
396.277	7.45676
396.487	7.14896
396.697	7.11433
396.908	7.2007
397.118	7.2253
397.328	6.97595
397.538	7.51694
397.749	6.44188
397.959	7.45612
398.169	7.27804
398.379	6.16251
398.589	7.2953
398.8	7.0787
399.01	7.12823
399.22	6.82194
399.43	8.33089
399.64	7.01805
399.85	7.29185
400.06	7.19031
400.27	6.47297
400.48	7.07336
400.69	7.83895
400.9	6.71034
401.11	6.38269
401.32	7.44532
401.53	6.76721
401.74	8.0602
401.95	7.42442
402.16	6.71186
402.37	7.18664
402.58	6.81595
402.79	7.50639
403	7.88789
403.209	6.77719
403.419	7.90524
403.629	6.79897
403.839	7.85319
404.049	7.71873
404.258	7.06193
404.468	6.82358
404.678	7.62541
404.888	8.04336
405.097	7.10633
405.307	7.14178
405.517	7.76696
405.727	7.5816
405.936	7.13764
406.146	7.49767
406.356	8.16435
406.565	7.21956
406.775	7.08854
406.984	7.01896
407.194	8.42276
407.404	7.11228
407.613	7.61138
407.823	7.67186
408.032	8.00282
408.242	7.90988
408.451	7.05879
408.661	7.13718
408.87	8.46441
409.08	6.84306
409.289	7.53898
409.499	7.5073
409.708	7.54393
409.918	6.3117
410.127	7.59722
410.336	8.47698
410.546	8.01701
410.755	7.18638
410.964	7.40271
411.174	6.86906
411.383	7.78939
411.592	7.65497
411.802	7.01559
412.011	7.8144
412.22	7.3462
412.429	8.43589
412.639	8.36595
412.848	8.03958
413.057	8.31515
413.266	8.25782
413.475	7.48463
413.685	7.79624
413.894	8.19007
414.103	8.24413
414.312	8.23388
414.521	7.37967
414.73	7.7105
414.939	9.05947
415.148	8.14501
415.357	7.86395
415.566	7.58807
415.776	7.68781
415.985	7.75639
416.194	8.46579
416.403	9.03797
416.611	7.26533
416.82	7.90624
417.029	8.26907
417.238	7.82615
417.447	7.70211
417.656	8.10592
417.865	7.84574
418.074	8.24328
418.283	8.39535
418.492	9.0069
418.7	8.71202
418.909	9.67
419.118	8.86695
419.327	9.28288
419.536	9.14482
419.744	9.1369
419.953	10.32879
420.162	10.60751
420.371	9.99598
420.579	10.52892
420.788	11.33215
420.997	11.46026
421.205	11.79424
421.414	11.56718
421.623	11.68835
421.831	11.23291
422.04	11.7309
422.249	10.90811
422.457	11.2997
422.666	10.45324
422.874	11.25885
423.083	11.31675
423.291	11.33233
423.5	11.2884
423.708	11.65021
423.917	12.14582
424.125	11.64908
424.334	11.53694
424.542	13.05693
424.751	12.59323
424.959	12.23822
425.167	12.20397
425.376	12.07068
425.584	10.9487
425.793	10.89915
426.001	10.02651
426.209	10.03516
426.418	8.99736
426.626	8.74304
426.834	8.60744
427.042	8.90893
427.251	8.63401
427.459	9.40206
427.667	8.92029
427.875	8.17615
428.084	8.60578
428.292	9.47391
428.5	9.14007
428.708	8.31412
428.916	8.32535
429.124	8.85759
429.333	8.65314
429.541	8.75602
429.749	8.94014
429.957	8.94326
430.165	10.46506
430.373	8.25032
430.581	8.96958
430.789	9.7305
430.997	8.85786
431.205	8.58851
431.413	9.14373
431.621	8.81602
431.829	9.41248
432.037	8.98233
432.245	9.40143
432.453	9.37444
432.661	9.07197
432.869	10.23937
433.076	8.84463
433.284	9.23496
433.492	9.60238
433.7	9.85203
433.908	9.14916
434.116	9.33872
434.323	9.40657
434.531	9.24458
434.739	9.49552
434.947	9.78198
435.154	9.63494
435.362	9.26564
435.57	9.04323
435.778	8.92501
435.985	9.40516
436.193	8.93562
436.401	9.88712
436.608	9.19041
436.816	9.01553
437.023	10.00634
437.231	10.15857
437.439	9.46434
437.646	9.61245
437.854	9.51965
438.061	9.72804
438.269	9.30412
438.476	9.79317
438.684	9.44822
438.891	9.40274
439.099	9.17319
439.306	8.96302
439.514	9.06589
439.721	10.11813
439.929	9.87754
440.136	10.68402
440.343	10.64775
440.551	10.62358
440.758	12.05572
440.965	10.88823
441.173	10.59259
441.38	10.48589
441.587	10.26721
441.795	9.96959
442.002	9.74082
442.209	9.76634
442.416	9.85696
442.624	9.8818
442.831	9.66778
443.038	9.30383
443.245	9.02746
443.452	9.40273
443.66	9.83831
443.867	9.33076
444.074	9.30805
444.281	9.30207
444.488	9.50018
444.695	9.65838
444.902	9.56868
445.109	10.53137
445.316	10.443
445.523	10.80854
445.73	11.02892
445.937	11.90736
446.144	12.31035
446.351	12.79264
446.558	11.85787
446.765	13.47522
446.972	12.87394
447.179	12.43411
447.386	12.99849
447.593	11.54652
447.8	12.20774
448.007	10.89698
448.214	10.37076
448.42	9.93088
448.627	10.23316
448.834	9.60111
449.041	9.58075
449.248	9.51623
449.454	9.99314
449.661	10.50942
449.868	9.33424
450.075	9.30053
450.281	8.60518
450.488	9.06399
450.695	9.11849
450.901	9.25438
451.108	9.28906
451.315	10.05157
451.521	9.35577
451.728	10.22597
451.935	9.2739
452.141	9.4778
452.348	9.58388
452.554	9.55135
452.761	9.38971
452.967	10.50663
453.174	9.76222
453.38	9.88692
453.587	9.10225
453.793	9.69517
454	10.2058
454.206	10.73872
454.413	10.14388
454.619	10.00574
454.825	9.33279
455.032	10.01497
455.238	10.06377
455.445	9.04433
455.651	9.66793
455.857	8.88102
456.064	9.4556
456.27	9.46531
456.476	9.435
456.682	9.05666
456.889	9.91238
457.095	10.03559
457.301	11.05108
457.507	9.74366
457.714	9.78018
457.92	9.78479
458.126	9.43156
458.332	9.76376
458.538	9.63909
458.744	9.86243
458.951	9.77849
459.157	11.71543
459.363	11.18285
459.569	11.54879
459.775	12.21477
459.981	11.98274
460.187	12.36183
460.393	12.54092
460.599	12.70551
460.805	11.79697
461.011	10.90868
461.217	10.75937
461.423	10.52638
461.629	9.92812
461.835	10.27394
462.041	9.84808
462.247	10.76132
462.453	9.76361
462.658	9.77134
462.864	10.13485
463.07	9.89987
463.276	10.04527
463.482	9.93671
463.688	10.5253
463.893	9.59795
464.099	9.76253
464.305	10.79502
464.511	9.62764
464.716	9.82702
464.922	10.32124
465.128	9.45892
465.333	10.84845
465.539	10.2807
465.745	9.94589
465.95	9.92879
466.156	11.47789
466.362	10.64414
466.567	9.9862
466.773	9.72949
466.978	10.80427
467.184	9.45589
467.389	9.01473
467.595	10.1563
467.8	9.66548
468.006	10.65658
468.211	10.6117
468.417	9.39267
468.622	10.25008
468.828	10.32483
469.033	10.26514
469.239	11.49943
469.444	9.88848
469.649	10.53096
469.855	10.01589
470.06	10.08554
470.266	9.64322
470.471	10.3972
470.676	10.26762
470.881	9.12608
471.087	10.80558
471.292	11.50306
471.497	9.54766
471.703	10.02653
471.908	9.83998
472.113	10.14353
472.318	10.58449
472.523	9.59636
472.729	10.37137
472.934	10.47566
473.139	9.9027
473.344	10.3108
473.549	10.80272
473.754	9.8302
473.959	11.56388
474.164	9.74599
474.369	10.07692
474.575	10.50181
474.78	10.26521
474.985	9.73434
475.19	9.2914
475.395	9.68515
475.6	10.14756
475.804	10.90064
476.009	10.19439
476.214	10.20315
476.419	10.08828
476.624	9.37668
476.829	9.85692
477.034	10.61318
477.239	9.88292
477.444	10.55493
477.648	10.46019
477.853	10.51834
478.058	10.21055
478.263	9.87977
478.468	9.71704
478.672	9.88566
478.877	10.97686
479.082	11.04894
479.287	10.52966
479.491	10.19396
479.696	9.83796
479.901	10.59118
480.105	10.72386
480.31	10.00401
480.515	10.27886
480.719	11.35657
480.924	10.19805
481.128	9.86401
481.333	10.61368
481.538	10.5559
481.742	10.90044
481.947	11.99984
482.151	13.05451
482.356	13.98361
482.56	16.25689
482.765	18.15038
482.969	21.40422
483.174	24.07608
483.378	27.83891
483.582	29.10526
483.787	31.31383
483.991	32.37628
484.196	32.8113
484.4	32.54819
484.604	32.84222
484.809	30.09591
485.013	28.40603
485.217	25.86588
485.422	23.21415
485.626	21.16573
485.83	19.77593
486.034	19.03526
486.239	19.16574
486.443	19.5218
486.647	19.93003
486.851	21.07235
487.055	22.63032
487.26	22.64923
487.464	23.82132
487.668	23.50905
487.872	24.30735
488.076	24.39901
488.28	23.49024
488.484	22.23885
488.688	21.60429
488.892	20.5975
489.096	19.0712
489.3	17.535
489.504	16.45353
489.708	15.6102
489.912	15.07329
490.116	14.75121
490.32	14.38503
490.524	15.51208
490.728	16.40191
490.932	17.30511
491.136	18.32793
491.34	19.6288
491.544	20.20612
491.748	20.17471
491.951	20.30401
492.155	19.88187
492.359	19.37648
492.563	17.86015
492.767	16.96097
492.97	15.26641
493.174	13.65699
493.378	12.54371
493.582	11.13851
493.785	10.68484
493.989	10.747
494.193	10.7281
494.396	10.51246
494.6	10.99472
494.804	10.59174
495.007	10.21511
495.211	10.38362
495.414	10.44483
495.618	10.73732
495.822	11.19033
496.025	10.6994
496.229	11.01584
496.432	10.3515
496.636	10.73451
496.839	10.63064
497.043	11.36924
497.246	10.86938
497.45	10.50805
497.653	10.78224
497.856	10.81513
498.06	10.35754
498.263	10.65147
498.467	10.54568
498.67	11.11281
498.873	10.83401
499.077	10.61227
499.28	10.64459
499.483	10.74255
499.686	10.99892
499.89	10.80112
500.093	11.1405
500.296	10.27876
500.499	11.30308
500.703	10.53855
500.906	10.81887
501.109	11.41856
501.312	10.69089
501.515	10.5628
501.719	10.85177
501.922	11.21093
502.125	10.74876
502.328	10.51847
502.531	10.17717
502.734	10.66031
502.937	9.9051
503.14	10.69964
503.343	10.28017
503.546	10.39159
503.749	10.28743
503.952	11.05954
504.155	10.27706
504.358	10.8632
504.561	10.65623
504.764	10.02037
504.967	10.69398
505.17	10.59344
505.373	11.4775
505.576	10.72748
505.778	11.01019
505.981	10.38349
506.184	11.25321
506.387	9.8159
506.59	11.67937
506.793	11.19206
506.995	10.90405
507.198	9.8034
507.401	10.9782
507.604	10.91335
507.806	10.35452
508.009	10.40316
508.212	11.2776
508.414	10.51349
508.617	10.57814
508.82	10.82689
509.022	11.53344
509.225	10.90418
509.427	10.26323
509.63	11.4364
509.833	10.85889
510.035	10.58793
510.238	10.09637
510.44	11.40348
510.643	9.92601
510.845	11.68371
511.048	10.99139
511.25	10.53308
511.453	10.6327
511.655	10.97078
511.858	10.68711
512.06	11.23298
512.262	10.83712
512.465	11.17451
512.667	10.57413
512.869	10.20791
513.072	11.03873
513.274	11.05604
513.476	10.96167
513.679	11.13736
513.881	10.33992
514.083	11.49255
514.286	10.37755
514.488	10.42932
514.69	10.24401
514.892	9.99822
515.094	11.03394
515.297	10.36465
515.499	10.80531
515.701	10.15843
515.903	11.49184
516.105	11.55509
516.307	11.16195
516.509	9.80513
516.711	10.26814
516.913	10.79446
517.116	10.82909
517.318	10.48029
517.52	11.41348
517.722	11.10867
517.924	10.39872
518.126	11.1597
518.328	10.84027
518.529	11.54917
518.731	12.33309
518.933	10.97993
519.135	11.18364
519.337	11.72374
519.539	11.1773
519.741	10.096
519.943	10.75083
520.145	10.61793
520.346	11.11582
520.548	10.60315
520.75	10.88108
520.952	10.6374
521.153	10.93877
521.355	10.93671
521.557	10.31982
521.759	10.81335
521.96	10.77483
522.162	10.23113
522.364	11.23108
522.565	10.4905
522.767	11.0725
522.969	11.23011
523.17	11.08748
523.372	10.97266
523.573	10.47052
523.775	10.69032
523.977	10.44569
524.178	11.84736
524.38	10.66287
524.581	11.14862
524.783	10.79481
524.984	11.19116
525.186	11.10661
525.387	11.72781
525.589	11.74722
525.79	11.93752
525.991	11.95456
526.193	12.5726
526.394	12.05813
526.596	13.02776
526.797	13.26433
526.998	13.03587
527.2	13.64471
527.401	15.73372
527.602	17.06323
527.803	19.5944
528.005	20.99858
528.206	22.71491
528.407	24.09775
528.608	24.50803
528.81	24.9517
529.011	24.60661
529.212	25.40954
529.413	23.96513
529.614	22.64859
529.815	21.28506
530.017	19.50974
530.218	17.44023
530.419	15.60334
530.62	14.91753
530.821	13.97801
531.022	12.5787
531.223	13.00466
531.424	12.80288
531.625	12.8151
531.826	12.51578
532.027	13.18119
532.228	14.42832
532.429	14.69274
532.63	15.28172
532.831	16.41511
533.032	16.68962
533.233	17.42175
533.433	17.23164
533.634	17.47435
533.835	16.75008
534.036	16.10607
534.237	15.38806
534.438	14.4995
534.638	13.18393
534.839	12.39726
535.04	12.05242
535.241	11.32817
535.441	12.06656
535.642	11.6885
535.843	11.26383
536.043	11.58529
536.244	11.82727
536.445	12.08453
536.645	12.87579
536.846	12.57391
537.047	12.92299
537.247	11.88816
537.448	11.5767
537.648	11.26536
537.849	10.86671
538.049	10.88933
538.25	11.25837
538.451	11.15409
538.651	10.53121
538.851	11.24295
539.052	11.55742
539.252	11.34654
539.453	11.0281
539.653	11.14418
539.854	11.05614
540.054	11.20627
540.254	12.90804
540.455	14.31427
540.655	14.74496
540.855	16.61497
541.056	17.81197
541.256	17.96411
541.456	18.98086
541.657	18.82531
541.857	19.39176
542.057	18.17783
542.257	17.56381
542.458	17.53326
542.658	16.93713
542.858	14.99187
543.058	14.64731
543.258	13.94552
543.458	12.39035
543.659	11.8243
543.859	12.20107
544.059	11.80717
544.259	11.12663
544.459	11.64466
544.659	10.9583
544.859	11.32928
545.059	10.79804
545.259	11.49152
545.459	11.2087
545.659	11.49973
545.859	11.19322
546.059	11.35475
546.259	10.76723
546.459	10.45221
546.659	10.71353
546.859	11.46396
547.059	11.26356
547.258	11.34443
547.458	11.29969
547.658	10.65298
547.858	10.4636
548.058	11.09315
548.258	10.85174
548.457	10.52779
548.657	11.91902
548.857	10.80083
549.057	11.37602
549.256	11.11078
549.456	10.60156
549.656	9.82291
549.855	12.03643
550.055	10.56158
550.255	11.93011
550.454	11.0139
550.654	11.26474
550.853	11.72107
551.053	11.34531
551.253	11.04855
551.452	11.2903
551.652	10.33574
551.851	10.06114
552.051	10.80661
552.25	10.58417
552.45	10.54247
552.649	10.58507
552.849	10.45573
553.048	10.98001
553.248	11.37694
553.447	10.25826
553.646	11.34684
553.846	12.34678
554.045	11.6692
554.244	10.05462
554.444	11.77192
554.643	10.24318
554.842	11.74893
555.042	11.9533
555.241	10.45244
555.44	10.18873
555.64	11.14191
555.839	11.63291
556.038	11.2051
556.237	10.43926
556.436	10.95552
556.636	11.05093
556.835	10.26829
557.034	11.65798
557.233	10.77812
557.432	9.77641
557.631	11.4493
557.83	10.59907
558.029	10.43154
558.228	10.29889
558.427	10.28373
558.626	10.96958
558.825	10.0163
559.024	10.64176
559.223	11.93735
559.422	10.58233
559.621	10.93879
559.82	9.31973
560.019	10.72415
560.218	10.42794
560.417	9.10363
560.616	10.5303
560.815	12.92694
561.014	9.82091
561.212	11.94403
561.411	10.84245
561.61	9.93826
561.809	10.52941
562.008	11.97378
562.206	10.47566
562.405	11.04888
562.604	10.60119
562.803	11.04081
563.001	10.62725
563.2	9.72454
563.399	11.05436
563.597	9.9739
563.796	10.68016
563.995	10.05785
564.193	11.22874
564.392	10.47633
564.59	12.06254
564.789	9.618
564.988	10.52551
565.186	11.07277
565.385	10.83865
565.583	10.79573
565.782	10.9723
565.98	10.79135
566.179	10.83908
566.377	10.34375
566.575	10.41331
566.774	11.83111
566.972	11.38051
567.171	12.1303
567.369	11.84682
567.567	11.00682
567.766	11.10963
567.964	9.64176
568.162	11.14931
568.361	11.71019
568.559	10.60153
568.757	11.07356
568.956	10.77172
569.154	10.93089
569.352	11.33988
569.55	10.74955
569.748	10.98093
569.947	10.36212
570.145	10.23788
570.343	10.36342
570.541	11.80168
570.739	10.16303
570.937	10.83374
571.135	11.19304
571.333	12.4102
571.532	12.31564
571.73	11.08637
571.928	11.7711
572.126	11.34546
572.324	10.78001
572.522	11.62173
572.72	12.69413
572.918	10.9207
573.116	11.30619
573.313	10.83175
573.511	10.96826
573.709	10.51737
573.907	11.62119
574.105	10.74895
574.303	10.02196
574.501	9.88511
574.699	11.38043
574.896	11.12805
575.094	11.50183
575.292	10.07991
575.49	11.62452
575.688	10.86704
575.885	11.80034
576.083	12.59735
576.281	11.28011
576.478	10.31348
576.676	11.32662
576.874	10.01744
577.071	10.83856
577.269	12.37265
577.467	10.68649
577.664	10.75929
577.862	11.44302
578.059	10.20784
578.257	11.39657
578.455	10.51373
578.652	10.71613
578.85	9.28481
579.047	10.88065
579.245	10.56029
579.442	10.75825
579.64	10.43923
579.837	9.45293
580.034	12.5621
580.232	10.52272
580.429	9.78223
580.627	11.11619
580.824	11.6551
581.021	11.18214
581.219	10.36906
581.416	10.19909
581.613	11.83554
581.811	11.70467
582.008	9.99306
582.205	11.41624
582.402	11.01565
582.6	11.99709
582.797	10.73231
582.994	11.08162
583.191	11.2515
583.388	10.69138
583.586	11.42683
583.783	11.56346
583.98	10.04107
584.177	10.79799
584.374	8.71231
584.571	10.39672
584.768	10.55942
584.965	10.36373
585.162	11.28209
585.359	12.07516
585.556	10.74858
585.753	11.00962
585.95	9.5939
586.147	10.10992
586.344	11.16967
586.541	10.45008
586.738	9.84318
586.935	10.72456
587.132	10.1311
587.329	11.64658
587.526	10.71533
587.722	14.81839
587.919	9.79388
588.116	11.09844
588.313	12.05544
588.51	12.56659
588.706	10.7681
588.903	11.26227
589.1	11.62789
589.297	13.21144
589.493	10.7506
589.69	11.30776
589.887	10.50578
590.083	9.98373
590.28	10.39266
590.477	11.52555
590.673	11.40921
590.87	12.04072
591.067	10.414
591.263	11.20245
591.46	11.07068
591.656	10.54144
591.853	12.04813
592.049	10.26197
592.246	10.23845
592.442	11.6532
592.639	12.07461
592.835	9.86184
593.032	11.18518
593.228	9.80635
593.425	9.82123
593.621	9.64909
593.817	10.94186
594.014	10.36586
594.21	11.21346
594.406	11.82253
594.603	11.34302
594.799	10.48036
594.995	9.10757
595.192	11.81249
595.388	10.54606
595.584	10.51653
595.78	9.89562
595.977	13.27369
596.173	12.44747
596.369	10.87593
596.565	10.43882
596.761	10.11286
596.957	11.95603
597.154	10.52733
597.35	10.70506
597.546	10.50545
597.742	11.40709
597.938	11.11889
598.134	10.3651
598.33	11.06798
598.526	11.83264
598.722	11.08353
598.918	12.34355
599.114	11.49318
599.31	9.78199
599.506	10.75314
599.702	10.14494
599.898	10.88332
600.094	11.55233
600.29	11.44793
600.485	11.8006
600.681	10.19084
600.877	12.29137
601.073	10.94059
601.269	12.58244
601.465	12.24077
601.66	10.01731
601.856	9.37719
602.052	12.86839
602.248	10.77844
602.443	9.45101
602.639	10.07683
602.835	10.40367
603.03	10.41501
603.226	11.94901
603.422	10.34934
603.617	11.01976
603.813	11.08432
604.009	10.84676
604.204	12.2253
604.4	10.16983
604.595	12.10068
604.791	10.44932
604.986	11.41026
605.182	10.3444
605.377	10.82733
605.573	10.85759
605.768	10.86804
605.964	11.49685
606.159	11.53388
606.355	11.74009
606.55	10.60851
606.746	11.81498
606.941	11.02686
607.136	12.54405
607.332	13.57447
607.527	9.87365
607.722	11.37346
607.918	10.81097
608.113	10.23177
608.308	11.71356
608.503	11.51934
608.699	11.51458
608.894	11.74126
609.089	10.48779
609.284	11.62447
609.479	10.86774
609.675	11.76293
609.87	10.94214
610.065	11.75681
610.26	11.84894
610.455	11.88229
610.65	11.06669
610.845	11.45858
611.04	11.80616
611.235	10.97034
611.43	11.09089
611.625	10.23602
611.82	12.47513
612.015	10.45054
612.21	12.73922
612.405	9.82887
612.6	12.91619
612.795	12.65998
612.99	11.67844
613.185	10.01553
613.38	10.32528
613.575	11.28329
613.77	14.05346
613.965	9.70238
614.159	10.36371
614.354	12.33133
614.549	12.19903
614.744	11.74574
614.938	9.93708
615.133	9.74879
615.328	12.56574
615.523	12.35296
615.717	14.10304
615.912	10.61749
616.107	11.2341
616.301	10.79567
616.496	10.32716
616.691	12.75659
616.885	11.94386
617.08	14.20477
617.274	12.19722
617.469	13.31427
617.664	11.89479
617.858	10.64411
618.053	11.70186
618.247	10.9795
618.442	9.05222
618.636	12.50928
618.831	10.35799
619.025	10.50264
619.219	14.38147
619.414	7.84421
619.608	10.94509
619.803	10.46202
619.997	13.56135
620.191	12.1476
620.386	11.61464
620.58	10.98574
620.774	9.11792
620.969	9.36356
621.163	11.36913
621.357	9.63745
621.551	11.03057
621.746	11.52532
621.94	10.80934
622.134	14.85641
622.328	13.65304
622.522	9.50244
622.716	12.43286
622.911	12.43184
623.105	12.29844
623.299	11.68649
623.493	14.75078
623.687	10.09492
623.881	10.59648
624.075	12.01506
624.269	12.63767
624.463	9.12117
624.657	9.50721
624.851	11.90506
625.045	12.03634
625.239	12.28302
625.433	10.79136
625.627	13.29044
625.821	10.82699
626.015	10.63505
626.209	11.53895
626.403	9.85326
626.596	11.92053
626.79	12.1955
626.984	10.22952
627.178	12.06213
627.372	12.09638
627.565	12.27656
627.759	9.89416
627.953	10.2501
628.147	11.82462
628.34	12.31542
628.534	13.93456
628.728	10.86287
628.921	12.49709
629.115	12.19125
629.309	12.39743
629.502	12.85399
629.696	11.43328
629.89	11.28644
630.083	11.742
630.277	11.52162
630.47	13.56988
630.664	11.08964
630.857	9.47628
631.051	12.25549
631.244	12.82019
631.438	12.41482
631.631	10.6762
631.825	12.88011
632.018	11.8671
632.212	13.58071
632.405	12.83804
632.598	10.4987
632.792	11.63624
632.985	8.81059
633.178	11.15079
633.372	11.51986
633.565	11.20048
633.758	13.05982
633.952	10.61551
634.145	10.35735
634.338	11.5037
634.531	10.87271
634.724	10.33757
634.918	11.57019
635.111	10.9963
635.304	10.75331
635.497	14.19349
635.69	11.85758
635.883	13.15709
636.077	10.32856
636.27	12.19938
636.463	11.71876
636.656	11.76753
636.849	11.01621
637.042	12.1876
637.235	14.07637
637.428	12.47331
637.621	12.03034
637.814	13.61142
638.007	13.6514
638.2	13.44213
638.393	14.24414
638.586	10.02176
638.778	11.06391
638.971	11.71734
639.164	13.75398
639.357	12.20684
639.55	13.75958
639.743	12.68592
639.935	12.55979
640.128	14.89492
640.321	12.88421
640.514	12.19497
640.707	15.23652
640.899	12.77187
641.092	9.80466
641.285	27.44846
641.477	8.76122
641.67	15.69341
641.863	13.73214
642.055	12.38137
642.248	11.87613
642.441	11.46681
642.633	12.75606
642.826	13.40029
643.018	14.02564
643.211	14.81971
643.403	15.258
643.596	15.48439
643.788	14.83724
643.981	11.16019
644.173	13.44154
644.366	11.28769
644.558	9.59014
644.751	13.89107
644.943	10.48265
645.135	14.90283
645.328	14.78098
645.52	13.4739
645.712	13.85947
645.905	16.83449
646.097	10.62652
646.289	12.73017
646.482	15.51663
646.674	10.96996
646.866	14.119
647.058	12.91034
647.251	10.81186
647.443	11.27424
647.635	12.01105
647.827	10.82877
648.019	11.07738
648.211	12.07698
648.404	12.44098
648.596	15.06983
648.788	12.88923
648.98	12.7445
649.172	13.31222
649.364	12.97738
649.556	10.01497
649.748	16.94552
649.94	10.93068
650.132	13.66326
650.324	11.48139
650.516	11.376
650.708	14.23592
650.9	10.5325
651.092	10.03682
651.284	10.31747
651.476	10.73219
651.667	13.8566
651.859	14.98494
652.051	12.39346
652.243	13.03107
652.435	12.09356
652.627	13.56377
652.818	13.31434
653.01	10.25323
653.202	11.39824
653.394	12.16584
653.585	13.24017
653.777	20.11209
653.969	15.24289
654.16	14.83251
654.352	11.20231
654.544	12.63326
654.735	14.62468
654.927	12.74491
655.118	15.52835
655.31	14.25211
655.502	14.91406
655.693	12.18501
655.885	13.34078
656.076	15.49332
656.268	13.4019
656.459	15.41445
656.651	15.02744
656.842	12.04228
657.034	11.45915
657.225	14.5574
657.416	15.33455
657.608	15.65558
657.799	13.16998
657.99	15.32199
658.182	12.06284
658.373	12.11183
658.564	15.25468
658.756	13.81668
658.947	12.99142
659.138	11.91208
659.33	12.26399
659.521	12.05932
659.712	13.00153
659.903	12.77805
660.094	12.41891
660.286	10.76597
660.477	16.14876
660.668	14.05018
660.859	13.09205
661.05	10.88742
661.241	13.95646
661.432	13.72021
661.623	12.76162
661.814	12.18601
662.006	10.64801
662.197	13.63012
662.388	15.06986
662.579	13.85695
662.77	15.69322
662.96	18.59427
663.151	14.90011
663.342	10.03659
663.533	14.17593
663.724	13.32598
663.915	16.95123
664.106	13.57376
664.297	17.11611
664.488	14.53065
664.678	12.04599
664.869	14.95512
665.06	14.65338
665.251	13.82149
665.442	14.2514
665.632	11.59405
665.823	17.58579
666.014	8.56509
666.204	14.8197
666.395	16.066
666.586	18.53193
666.776	15.27067
666.967	17.26532
667.158	13.83043
667.348	16.88653
667.539	11.84724
667.729	15.67417
667.92	12.44273
668.111	15.45924
668.301	15.31543
668.492	13.15095
668.682	14.12942
668.873	13.78805
669.063	11.59279
669.253	14.57317
669.444	16.92813
669.634	13.68566
669.825	17.4859
670.015	16.34915
670.206	12.62387
670.396	17.94963
670.586	13.53496
670.777	15.15607
670.967	10.26571
671.157	13.64915
671.347	12.99678
671.538	17.21925
671.728	15.66083
671.918	17.95507
672.108	16.3719
672.299	13.76474
672.489	14.70684
672.679	12.79891
672.869	15.22841
673.059	18.82263
673.249	15.59599
673.44	12.317
673.63	13.60906
673.82	16.32277
674.01	12.56147
674.2	15.16026
674.39	20.23806
674.58	15.76131
674.77	15.02666
674.96	13.49903
675.15	23.26563
675.34	16.96502
675.53	14.63495
675.72	13.46388
675.91	11.4633
676.099	18.71611
676.289	20.13194
676.479	16.73122
676.669	13.56408
676.859	15.73775
677.049	13.13918
677.238	14.77271
677.428	18.35691
677.618	16.03469
677.808	19.1659
677.997	15.71502
678.187	13.11457
678.377	14.72156
678.567	13.46042
678.756	14.03356
678.946	14.83217
679.136	12.27969
679.325	13.96355
679.515	13.17115
679.704	12.53276
679.894	17.00865
680.084	15.55465
680.273	17.44647
680.463	13.10353
680.652	13.12653
680.842	14.72427
681.031	16.72292
681.221	13.29352
681.41	15.81409
681.6	14.68491
681.789	16.41301
681.978	17.45604
682.168	15.75566
682.357	15.103
682.547	15.97287
682.736	15.54035
682.925	18.28173
683.115	17.89713
683.304	16.9532
683.493	15.3897
683.682	16.54339
683.872	16.24782
684.061	18.06447
684.25	17.11565
684.439	21.10517
684.629	17.60156
684.818	23.69867
685.007	15.7019
685.196	14.84042
685.385	20.38463
685.574	16.70611
685.763	16.72605
685.952	16.50575
686.142	13.6203
686.331	19.26263
686.52	12.52162
686.709	20.89046
686.898	20.50251
687.087	17.41294
687.276	20.25319
687.465	19.32054
687.654	15.47781
687.842	19.6298
688.031	13.80837
688.22	19.65636
688.409	16.66937
688.598	16.98236
688.787	22.56315
688.976	16.54611
689.165	21.54178
689.353	15.68688
689.542	17.45841
689.731	19.46477
689.92	22.71381
690.108	18.3645
690.297	15.9068
690.486	17.02499
690.675	18.46812
690.863	20.85019
691.052	20.56525
691.241	17.75392
691.429	18.02842
691.618	20.78482
691.806	13.93539
691.995	16.73074
692.184	17.08969
692.372	16.19281
692.561	17.55988
692.749	17.94867
692.938	26.60243
693.126	18.83101
693.315	16.41927
693.503	19.23713
693.692	20.55228
693.88	19.74302
694.068	23.16198
694.257	18.45421
694.445	19.57984
694.634	12.83837
694.822	20.25465
695.01	20.7667
695.199	23.71836
695.387	22.11049
695.575	21.53388
695.763	17.45483
695.952	16.74408
696.14	13.4195
696.328	15.65611
696.516	18.40577
696.705	18.63175
696.893	18.22082
697.081	13.42677
697.269	19.98448
697.457	15.01564
697.645	14.48723
697.833	19.59699
698.021	15.52664
698.21	16.27107
698.398	16.8433
698.586	14.478
698.774	13.33401
698.962	17.35856
699.15	14.71208
699.338	13.36927
699.526	18.49114
699.714	15.28916
699.901	15.37406
700.089	18.81719
700.277	15.26539
700.465	16.65096
700.653	18.92194
700.841	17.81457
701.029	15.45825
701.217	21.19502
701.404	17.48225
701.592	21.80631
701.78	24.83311
701.968	16.79193
702.155	17.6444
702.343	14.43507
702.531	22.36032
702.718	19.72542
702.906	16.56771
703.094	16.98056
703.281	22.08533
703.469	17.8319
703.657	21.86863
703.844	28.3911
704.032	24.69114
704.219	17.56919
704.407	20.02078
704.595	23.77353
704.782	20.26556
704.97	19.46676
705.157	18.73314
705.345	25.7846
705.532	32.26804
705.719	23.66609
705.907	26.14695
706.094	23.01198
706.282	29.0115
706.469	23.3022
706.656	24.50063
706.844	22.66753
707.031	27.45715
707.218	25.94646
707.406	30.1217
707.593	27.40082
707.78	27.26466
707.968	25.18623
708.155	22.76493
708.342	27.80273
708.529	28.25113
708.716	27.12548
708.904	30.73734
709.091	27.95409
709.278	22.23875
709.465	32.79558
709.652	31.01129
709.839	29.22377
710.026	25.39178
710.213	19.80255
710.4	25.52397
710.587	26.39488
710.774	28.541
710.961	28.40289
711.148	24.94246
711.335	27.55867
711.522	24.48888
711.709	26.69973
711.896	32.11472
712.083	28.6148
712.27	22.3233
712.457	25.85084
712.644	19.9295
712.831	32.39006
713.017	26.10727
713.204	27.29388
713.391	22.70759
713.578	27.79027
713.765	29.5947
713.951	25.36977
714.138	34.96131
714.325	24.79909
714.512	22.85027
714.698	20.16992
714.885	28.03435
715.072	22.86115
715.258	22.42223
715.445	19.81157
715.631	26.80363
715.818	13.13042
716.005	19.65075
716.191	24.03872
716.378	20.56119
716.564	24.31427
716.751	18.03272
716.937	20.36886
717.124	24.91241
717.31	18.53969
717.497	28.99186
717.683	18.91248
717.869	29.88457
718.056	19.51615
718.242	23.75864
718.429	21.34638
718.615	17.56362
718.801	21.65661
718.988	25.97756
719.174	23.47865
719.36	20.28049
719.547	27.5517
719.733	22.69867
719.919	22.87233
720.105	23.99118
720.291	21.73973
720.478	23.12598
720.664	21.55608
720.85	20.2758
721.036	33.62264
721.222	29.30939
721.408	22.25667
721.595	29.47164
721.781	28.67283
721.967	27.62551
722.153	29.1928
722.339	25.36835
722.525	24.81675
722.711	18.29762
722.897	17.42312
723.083	21.16932
723.269	27.65627
723.455	34.52692
723.641	41.02379
723.827	23.62697
724.012	25.42937
724.198	22.54187
724.384	29.29067
724.57	24.38375
724.756	17.25393
724.942	14.69348
725.127	28.45671
725.313	29.04009
725.499	28.73139
725.685	32.35368
725.87	24.91477
726.056	19.59885
726.242	28.56654
726.428	16.16538
726.613	27.41892
726.799	21.51211
726.985	18.61183
727.17	17.30036
727.356	32.97012
727.541	19.83571
727.727	22.63037
727.913	27.22048
728.098	20.91152
728.284	26.53052
728.469	19.05182
728.655	19.81521
728.84	28.80638
729.026	26.75777
729.211	27.26679
729.397	24.95996
729.582	27.1641
729.767	23.10303
729.953	25.73355
730.138	30.05631
730.323	13.9317
730.509	19.10452
730.694	31.5799
730.879	26.29875
731.065	24.89172
731.25	34.391
731.435	26.4359
731.621	17.67772
731.806	21.70146
731.991	25.06257
732.176	18.56063
732.361	31.20296
732.547	25.29557
732.732	17.19945
732.917	34.73128
733.102	19.55723
733.287	21.21541
733.472	23.73119
733.657	23.84211
733.842	17.60837
734.027	21.09593
734.212	23.13003
734.397	20.66712
734.582	23.96541
734.767	28.62056
734.952	30.4409
735.137	13.55287
735.322	30.64347
735.507	26.67879
735.692	24.64473
735.877	35.28683
736.062	33.60424
736.247	25.80299
736.431	24.0854
736.616	28.41667
736.801	26.65264
736.986	24.87364
737.171	19.82062
737.355	18.79619
737.54	31.74751
737.725	25.06518
737.909	38.55747
738.094	22.57756
738.279	27.71605
738.463	23.42191
738.648	26.83546
738.833	26.66316
739.017	36.3559
739.202	23.6174
739.386	23.27598
739.571	20.6189
739.756	29.60485
739.94	24.51702
740.125	27.59742
740.309	20.77235
740.494	28.70172
740.678	26.19189
740.863	27.02165
741.047	25.74262
741.231	33.29144
741.416	22.7416
741.6	33.30815
741.785	21.98018
741.969	30.43442
742.153	33.67334
742.338	14.81774
742.522	24.68639
742.706	29.98194
742.89	19.11097
743.075	26.6128
743.259	32.32201
743.443	30.57583
743.627	33.26265
743.812	37.93539
743.996	17.4308
744.18	24.52599
744.364	24.27254
744.548	38.92776
744.732	24.39755
744.916	30.8831
745.1	29.10212
745.285	24.50724
745.469	28.57535
745.653	35.05006
745.837	18.61544
746.021	38.91505
746.205	32.14602
746.389	26.87452
746.573	24.03484
746.757	34.34731
746.94	23.32211
747.124	33.10588
747.308	20.31087
747.492	31.98721
747.676	21.10808
747.86	40.66699
748.044	23.44923
748.227	17.11654
748.411	49.91922
748.595	26.96004
748.779	22.56853
748.963	29.02455
749.146	26.67808
749.33	22.29997
749.514	21.49415
749.697	33.34879
749.881	22.24854
750.065	20.82578
750.248	26.84569
750.432	40.58688
750.616	25.88208
750.799	20.62797
750.983	41.6544
751.166	41.14239
751.35	18.02537
751.533	29.64658
751.717	37.34154
751.9	36.52486
752.084	24.59513
752.267	22.17383
752.451	21.98261
752.634	26.95839
752.818	30.56416
753.001	31.94301
753.184	34.27726
753.368	29.08011
753.551	8.92153
753.734	21.74141
753.918	42.4775
754.101	23.3157
754.284	31.42179
754.467	24.88098
754.651	22.64351
754.834	21.48359
755.017	33.74805
755.2	35.4139
755.384	20.33312
755.567	31.151
755.75	32.40375
755.933	24.84678
756.116	31.28816
756.299	23.82768
756.482	21.96084
756.665	29.82852
756.848	27.24364
757.032	29.46541
757.215	18.89654
757.398	21.65598
757.581	21.38664
757.764	45.47263
757.947	25.76625
758.129	33.2952
758.312	10.69554
758.495	26.14228
758.678	26.72516
758.861	24.25913
759.044	39.83681
759.227	20.4706
759.41	21.64119
759.592	31.43987
759.775	26.02748
759.958	32.67373
760.141	20.45644
760.324	42.7726
760.506	37.09402
760.689	32.58445
760.872	41.77546
761.054	29.59182
761.237	26.23814
761.42	28.20622
761.602	33.22059
761.785	30.06997
761.968	35.09749
762.15	39.68885
762.333	26.52696
762.515	30.57544
762.698	24.58117
762.88	33.55374
763.063	29.91536
763.245	34.91682
763.428	21.85228
763.61	24.50407
763.793	19.25765
763.975	29.05615
764.158	25.26993
764.34	23.64881
764.522	21.65981
764.705	25.12247
764.887	36.89213
765.069	18.39145
765.252	30.44521
765.434	32.14972
765.616	27.71091
765.799	22.33713
765.981	31.65871
766.163	22.40777
766.345	35.62345
766.528	22.68461
766.71	14.75492
766.892	28.62714
767.074	35.50162
767.256	25.39184
767.438	40.42872
767.62	29.31229
767.802	44.23901
767.985	32.57316
768.167	40.43351
768.349	24.16459
768.531	31.7286
768.713	31.70466
768.895	34.23985
769.077	30.7016
769.259	48.22601
769.441	62.92387
769.623	33.71754
769.804	39.97264
769.986	37.23902
770.168	45.18898
770.35	55.036
770.532	41.67589
770.714	45.46985
770.896	45.53505
771.077	20.14076
771.259	47.64774
771.441	42.11622
771.623	50.38193
771.804	61.09563
771.986	21.56036
772.168	32.946
772.35	46.96849
772.531	63.78617
772.713	39.66138
772.894	53.20423
773.076	39.20191
773.258	34.31193
773.439	54.42364
773.621	60.07434
773.802	28.43837
773.984	32.66521
774.166	42.81192
774.347	55.8023
774.529	48.65916
774.71	19.7921
774.891	39.02841
775.073	35.47006
775.254	52.58779
775.436	32.63735
775.617	66.28827
775.799	34.63038
775.98	54.61346
776.161	58.18103
776.343	60.67559
776.524	39.7145
776.705	37.44204
776.886	21.49673
777.068	42.18301
777.249	90.67178
777.43	63.91772
777.611	26.42851
777.793	35.9189
777.974	60.09895
778.155	35.57998
778.336	28.14986
778.517	71.77797
778.698	32.20134
778.879	21.12169
779.061	13.42054
779.242	45.69156
779.423	45.39491
779.604	33.13039
779.785	36.95209
779.966	43.9279
780.147	55.24359
780.328	52.94872
780.509	72.7408
780.69	51.88291
780.871	33.0096
781.051	25.03223
781.232	40.92719
781.413	42.49346
781.594	36.17172
781.775	34.75878
781.956	31.39137
782.137	18.49603
782.317	33.82661
782.498	42.84968
782.679	41.61862
782.86	42.40125
783.04	33.02937
783.221	42.87629
783.402	63.77038
783.583	40.21593
783.763	49.32336
783.944	33.91841
784.124	26.5615
784.305	61.57654
784.486	48.31753
784.666	39.67114
784.847	23.06685
785.027	84.89526
785.208	34.48652
785.388	29.47271
785.569	31.85099
785.749	36.53388
785.93	35.79248
786.11	24.67734
786.291	47.26591
786.471	43.30578
786.652	51.45181
786.832	37.83781
787.012	43.06457
787.193	27.16836
787.373	40.6718
787.553	34.33521
787.734	43.08581
787.914	36.08479
788.094	53.31286
788.275	44.17998
788.455	36.35113
788.635	26.40276
788.815	43.09878
788.995	29.02981
789.176	24.24015
789.356	31.84138
789.536	37.19575
789.716	45.12867
789.896	32.32766
790.076	33.4831
790.256	44.08333
790.436	18.96407
790.616	29.8856
790.796	43.36604
790.976	35.37474
791.156	30.67956
791.336	45.7439
791.516	43.64831
791.696	35.83944
791.876	24.44399
792.056	40.4748
792.236	51.41038
792.416	48.71955
792.596	45.14046
792.776	44.92587
792.956	48.75705
793.135	64.10761
793.315	29.10514
793.495	54.10961
793.675	50.22613
793.854	51.47244
794.034	52.03016
794.214	27.64546
794.394	49.44248
794.573	54.68742
794.753	42.70713
794.933	30.16122
795.112	42.72242
795.292	51.99198
795.472	63.51939
795.651	25.52343
795.831	39.69381
796.01	37.82564
796.19	36.7806
796.369	38.17186
796.549	45.37734
796.728	38.32179
796.908	25.72446
797.087	28.01034
797.267	36.56964
797.446	27.24543
797.626	45.58337
797.805	45.4885
797.984	31.64551
798.164	49.60741
798.343	30.46625
798.522	41.92233
798.702	41.29464
798.881	26.68073
799.06	37.40413
799.239	21.35207
799.419	30.30869
799.598	63.43948
799.777	45.28207
799.956	54.36818
800.136	36.95187
800.315	30.44548
800.494	44.16301
800.673	52.14063
800.852	49.4189
801.031	54.80832
801.21	48.02999
801.389	33.82823
801.568	41.89006
801.747	64.89899
801.926	40.09275
802.105	58.6843
802.284	35.30217
802.463	61.02139
802.642	42.7327
802.821	42.80316
803	57.91316
803.179	50.91411
803.358	54.06551
803.537	33.11566
803.716	40.51463
803.895	34.15682
804.073	37.78272
804.252	31.40919
804.431	47.81386
804.61	38.06266
804.789	51.73391
804.967	34.43877
805.146	35.13846
805.325	69.87573
805.503	44.6843
805.682	25.51729
805.861	84.56804
806.039	57.37684
806.218	34.37963
806.397	42.70797
806.575	37.94863
806.754	45.04707
806.932	29.76257
807.111	54.02794
807.289	52.04957
807.468	41.0944
807.646	52.48979
807.825	47.73477
808.003	42.86137
808.182	54.19825
808.36	41.39525
808.539	32.18608
808.717	60.76112
808.895	33.95444
809.074	45.74531
809.252	42.37622
809.43	48.96861
809.609	57.72262
809.787	64.78061
809.965	37.65103
810.144	41.43112
810.322	40.20087
810.5	47.97588
810.678	38.93568
810.856	71.94801
811.035	57.61144
811.213	48.61982
811.391	61.22792
811.569	42.81975
811.747	92.47531
811.925	56.02484
812.103	34.23863
812.281	42.91761
812.459	67.07986
812.637	67.34107
812.816	53.29064
812.994	74.22289
813.171	61.91981
813.349	50.90371
813.527	54.51745
813.705	62.56797
813.883	79.45495
814.061	54.4461
814.239	67.85119
814.417	74.89393
814.595	52.1231
814.773	46.84746
814.95	44.97079
815.128	50.50529
815.306	46.7224
815.484	39.09612
815.662	31.86522
815.839	31.26151
816.017	39.08864
816.195	60.52756
816.372	38.51825
816.55	54.18819
816.728	66.34132
816.905	41.88706
817.083	66.77848
817.261	43.38832
817.438	89.79898
817.616	68.52734
817.793	36.08569
817.971	57.58341
818.148	54.52109
818.326	60.23141
818.503	48.58572
818.681	69.41135
818.858	41.54235
819.036	44.70208
819.213	48.32166
819.391	36.34113
819.568	36.29407
819.745	31.66349
819.923	53.27198
820.1	41.37294
820.277	34.57739
820.455	39.95215
820.632	43.07224
820.809	45.81224
820.986	30.39715
821.164	24.95127
821.341	23.92843
821.518	34.58595
821.695	25.95614
821.872	24.1007
822.05	21.61718
822.227	18.54328
822.404	19.37143
822.581	21.50481
822.758	19.33876
822.935	19.34175
823.112	20.81803
823.289	18.68099
823.466	21.63363
823.643	20.41266
823.82	24.01632
823.997	21.82603
824.174	24.70648
824.351	31.03323
824.528	28.93455
824.705	27.84463
824.882	29.0425
825.059	36.16267
825.236	28.04047
825.412	29.20327
825.589	33.50605
825.766	45.82882
825.943	30.1174
826.12	34.59101
826.296	26.00915
826.473	31.48719
826.65	31.12171
826.827	36.94492
827.003	26.09329
827.18	29.12918
827.357	31.46304
827.533	27.62896
827.71	17.82431
827.887	24.91114
828.063	28.13752
828.24	23.96696
828.416	30.8224
828.593	25.98726
828.769	35.01337
828.946	35.89809
829.122	36.77386
829.299	36.56862
829.475	24.36133
829.652	35.83928
829.828	55.72443
830.005	36.79498
830.181	49.18384
830.357	38.63311
830.534	50.01318
830.71	39.5535
830.886	50.16713
831.063	46.87964
831.239	59.36631
831.415	30.23435
831.592	62.01583
831.768	39.812
831.944	36.03255
832.12	67.8742
832.296	64.02273
832.473	53.17615
832.649	37.13919
832.825	55.00555
833.001	33.6399
833.177	46.20429
833.353	43.69325
833.529	27.95115
833.705	39.51101
833.881	28.0097
834.058	26.92712
834.234	28.82938
834.41	29.2776
834.586	23.45972
834.761	27.67746
834.937	30.29493
835.113	31.17088
835.289	27.58131
835.465	31.6736
835.641	28.84607
835.817	31.36941
835.993	50.634
836.169	29.73183
836.344	42.43154
836.52	46.46278
836.696	43.10979
836.872	34.52272
837.048	93.41254
837.223	38.49444
837.399	69.12171
837.575	56.32712
837.75	50.90176
837.926	72.54724
838.102	104.21613
838.277	83.89576
838.453	116.53772
838.628	114.69591
838.804	46.74845
838.98	101.24041
839.155	57.08308
839.331	76.28147
839.506	53.2436
839.682	51.08996
839.857	72.92006
840.033	84.19806
840.208	42.17609
840.384	23.11203
840.559	44.30559
840.734	62.01541
840.91	81.20888
841.085	51.03515
841.26	50.19853
841.436	44.76317
841.611	44.14173
841.786	68.2819
841.962	85.07303
842.137	54.78676
842.312	36.34832
842.487	50.13683
842.663	41.18021
842.838	47.71586
843.013	154.4482
843.188	74.07565
843.363	82.42054
843.538	123.87582
843.714	127.59976
843.889	130.38035
844.064	143.44609
844.239	114.05953
844.414	132.74089
844.589	90.30571
844.764	165.14148
844.939	160.22848
845.114	172.51329
845.289	163.96898
845.464	221.71734
845.639	155.33787
845.814	73.09508
845.989	86.96357
846.163	111.06506
846.338	117.68887
846.513	153.76676
846.688	106.45487
846.863	113.82466
847.038	99.16496
847.212	117.81443
847.387	117.10756
847.562	119.13583
847.737	152.56329
847.911	62.79198
848.086	69.70082
848.261	245.13387
848.435	103.81363
848.61	157.40949
848.785	82.41124
848.959	162.62429
849.134	211.19455
849.308	222.24254
849.483	115.16461
849.658	185.55522
849.832	103.67508
850.007	84.43948
850.181	243.06848
850.356	96.85344
850.53	234.72784
850.705	75.4298
850.879	43.21726
851.053	117.15265
851.228	91.44434
851.402	129.23397
851.577	172.42975
851.751	181.71653
851.925	122.20399
852.099	58.92598
852.274	85.40177
852.448	118.49387
852.622	129.89341
852.797	119.13402
852.971	117.29648
853.145	112.13873
853.319	346.71708
853.493	174.24979
853.668	93.04945
853.842	226.30098
854.016	179.16988
854.19	208.51087
854.364	125.8894
854.538	132.43785
854.712	183.17952
854.886	115.66091
855.06	107.34865
855.234	45.83492
855.408	192.93303
855.582	168.92885
855.756	164.86694
855.93	212.4263
856.104	148.11076
856.278	163.68314
856.452	125.67849
856.626	162.07217
856.8	262.88437
856.973	142.97808
857.147	138.59969
857.321	142.47119
857.495	180.46634
857.669	123.21319
857.842	105.90111
858.016	178.83708
858.19	89.72075
858.364	286.47022
858.537	106.9498
858.711	129.8615
858.885	112.06565
859.058	98.71768
859.232	58.50422
859.405	62.04833
859.579	164.0293
859.753	137.27346
859.926	93.18246
860.1	66.50019
860.273	121.89554
860.447	211.03111
860.62	109.29817
860.794	245.36933
860.967	137.29039
861.141	178.12084
861.314	253.34136
861.487	160.39412
861.661	200.25103
861.834	207.79159
862.008	180.64213
862.181	128.13896
862.354	133.18075
862.528	142.20572
862.701	106.04856
862.874	72.98892
863.047	111.65994
863.221	103.92349
863.394	52.05738
863.567	201.15359
863.74	46.7035
863.913	175.24402
864.087	147.74234
864.26	174.16881
864.433	122.11464
864.606	223.59389
864.779	131.12676
864.952	58.51322
865.125	108.05791
865.298	130.03803
865.471	125.04111
865.644	256.35436
865.817	211.03127
865.99	168.67411
866.163	198.43707
866.336	119.28738
866.509	124.31954
866.682	106.23996
866.855	186.00129
867.028	82.41498
867.2	166.54172
867.373	54.50862
867.546	136.55697
867.719	263.70206
867.892	163.0608
868.064	91.58067
868.237	149.00247
868.41	131.98638
868.583	75.97327
868.755	77.51727
868.928	123.13407
869.101	269.93584
869.273	193.79475
869.446	161.72132
869.619	191.3324
869.791	126.59301
869.964	187.02283
870.136	175.32599
870.309	135.86972
870.481	134.37076
870.654	68.10659
870.826	140.94723
870.999	111.83375
871.171	168.54742
871.344	109.59259
871.516	133.34421
871.689	95.67271
871.861	143.11548
872.033	101.84253
872.206	114.14603
872.378	183.53062
872.55	113.73086
872.723	78.20946
872.895	118.77611
873.067	185.99213
873.24	205.316
873.412	106.55483
873.584	115.04453
873.756	115.10278
873.928	151.86116
874.101	149.67706
874.273	157.95278
874.445	60.61348
874.617	80.29106
874.789	142.88956
874.961	110.95076
875.133	157.88863
875.305	134.05034
875.477	85.67429
875.649	72.49426
875.821	88.6247
875.993	230.95005
876.165	84.40085
876.337	143.60954
876.509	116.7585
876.681	146.26488
876.853	140.76991
877.025	145.21342
877.197	97.35692
877.369	88.14207
877.541	179.19932
877.712	51.35121
877.884	77.1429
878.056	160.64763
878.228	86.55187
878.4	154.01783
878.571	90.64076
878.743	66.41092
878.915	142.63118
879.086	84.71437
879.258	107.49025
879.43	98.12318
879.601	89.87964
879.773	88.57061
879.945	23.73689
880.116	42.02515
880.288	28.4246
880.459	30.08907
880.631	24.17925
880.802	28.85321
880.974	27.21023
881.145	20.59189
881.317	25.88362
881.488	20.82339
881.66	22.32344
881.831	20.20175
882.002	27.44988
882.174	21.04444
882.345	26.61962
882.517	16.70729
882.688	29.46821
882.859	26.50425
883.03	39.72933
883.202	37.42574
883.373	33.49797
883.544	32.88274
883.715	54.86187
883.887	45.3152
884.058	39.88016
884.229	54.47642
884.4	55.21937
884.571	61.48355
884.742	52.80352
884.914	61.29256
885.085	85.04632
885.256	100.62522
885.427	84.42943
885.598	97.79195
885.769	103.75663
885.94	93.17374
886.111	67.67663
886.282	113.73547
886.453	96.2317
886.624	67.10086
886.795	112.44174
886.966	97.15812
887.136	125.51757
887.307	85.10714
887.478	155.60527
887.649	140.03213
887.82	144.22306
887.991	117.85964
888.161	152.83593
888.332	153.06262
888.503	83.17772
888.674	194.611
888.844	212.96706
889.015	171.10382
889.186	74.86937
889.356	202.76845
889.527	76.63022
889.698	342.87785
889.868	109.11985
890.039	149.80198
890.209	120.49243
890.38	169.84572
890.551	151.05439
890.721	209.73477
890.892	169.33316
891.062	119.87196
891.233	152.55766
891.403	118.0113
891.574	85.88858
891.744	116.91059
891.914	158.82447
892.085	139.47262
892.255	46.40883
892.425	213.97017
892.596	159.04561
892.766	148.13396
892.936	209.14592
893.107	176.48442
893.277	97.4615
893.447	77.3905
893.618	57.90444
893.788	112.87919
893.958	59.10091
894.128	70.07748
894.298	70.92071
894.468	99.36882
894.639	48.27426
894.809	33.83974
894.979	52.07654
895.149	59.04195
895.319	50.11568
895.489	66.80099
895.659	84.20279
895.829	59.08818
895.999	61.82283
896.169	43.78583
896.339	55.61199
896.509	112.04179
896.679	130.51183
896.849	117.21414
897.019	169.46007
897.189	132.23324
897.358	111.42957
897.528	176.33486
897.698	61.61838
897.868	156.6576
898.038	265.82681
898.208	251.11204
898.377	80.47243
898.547	257.17973
898.717	410.23889
898.886	156.697
899.056	257.52823
899.226	370.41739
899.395	224.0301
899.565	282.23981
899.735	189.20992
899.904	306.9623
900.074	266.29862
900.244	121.50332
900.413	479.313
900.583	111.53037
900.752	167.59915
900.922	287.01276
901.091	31.6908
901.261	257.72327
901.43	238.78382
901.599	246.60884
901.769	538.75002
901.938	282.11251
902.108	265.96651
902.277	359.52891
902.446	99.91547
902.616	113.77445
902.785	168.64259
902.954	274.96532
903.124	184.60718
903.293	149.80137
903.462	79.32928
903.631	115.93016
903.801	86.31047
903.97	50.16369
904.139	79.57278
904.308	61.53251
904.477	49.78456
904.646	32.14276
904.816	49.16769
904.985	65.81382
905.154	98.48209
